Timestamp,ECG_Value
2026-02-26 15:17:29,0.04
2026-02-26 15:17:29,-0.13
2026-02-26 15:17:29,0.11
2026-02-26 15:17:29,0.04
2026-02-26 15:17:29,-0.09
2026-02-26 15:17:29,0.02
2026-02-26 15:17:29,0.01
2026-02-26 15:17:29,0.01
2026-02-26 15:17:29,-0.03
2026-02-26 15:17:29,0.03
2026-02-26 15:17:29,-0.03
2026-02-26 15:17:29,0.02
2026-02-26 15:17:29,0
2026-02-26 15:17:29,0.01
2026-02-26 15:17:29,-0.02
2026-02-26 15:17:29,0.02
2026-02-26 15:17:29,-0.01
2026-02-26 15:17:29,0.01
2026-02-26 15:17:29,-0.01
2026-02-26 15:17:29,0
2026-02-26 15:17:29,0
2026-02-26 15:17:29,0
2026-02-26 15:17:29,0
2026-02-26 15:17:29,0.01
2026-02-26 15:17:29,-0.01
2026-02-26 15:17:29,0.01
2026-02-26 15:17:29,0
2026-02-26 15:17:29,0
2026-02-26 15:17:29,0
2026-02-26 15:17:29,0
2026-02-26 15:17:29,0
2026-02-26 15:17:29,0.01
2026-02-26 15:17:29,0
2026-02-26 15:17:29,-0.01
2026-02-26 15:17:29,0.02
2026-02-26 15:17:29,-0.02
2026-02-26 15:17:29,0.02
2026-02-26 15:17:29,-0.01
2026-02-26 15:17:29,-0.01
2026-02-26 15:17:29,0.01
2026-02-26 15:17:29,0
2026-02-26 15:17:29,-0.01
2026-02-26 15:17:29,0.01
2026-02-26 15:17:29,-0.01
2026-02-26 15:17:29,0.01
2026-02-26 15:17:29,-0.01
2026-02-26 15:17:29,0.01
2026-02-26 15:17:29,-0.01
2026-02-26 15:17:29,0.01
2026-02-26 15:17:29,0
2026-02-26 15:17:29,-0.01
2026-02-26 15:17:29,0.01
2026-02-26 15:17:29,0
2026-02-26 15:17:29,0
2026-02-26 15:17:29,0
2026-02-26 15:17:29,0
2026-02-26 15:17:29,0
2026-02-26 15:17:29,0
2026-02-26 15:17:29,0.01
2026-02-26 15:17:29,-0.01
2026-02-26 15:17:29,0.01
2026-02-26 15:17:29,0
2026-02-26 15:17:29,0
2026-02-26 15:17:29,0
2026-02-26 15:17:29,0
2026-02-26 15:17:29,0
2026-02-26 15:17:29,0
2026-02-26 15:17:29,-0.01
2026-02-26 15:17:29,0.01
2026-02-26 15:17:29,0
2026-02-26 15:17:29,0.01
2026-02-26 15:17:30,-0.02
2026-02-26 15:17:30,0.02
2026-02-26 15:17:30,-0.01
2026-02-26 15:17:30,0
2026-02-26 15:17:30,0
2026-02-26 15:17:30,0.01
2026-02-26 15:17:30,-0.01
2026-02-26 15:17:30,0
2026-02-26 15:17:30,0.01
2026-02-26 15:17:30,-0.01
2026-02-26 15:17:30,-0.01
2026-02-26 15:17:30,0.01
2026-02-26 15:17:30,0
2026-02-26 15:17:30,0
2026-02-26 15:17:30,0
2026-02-26 15:17:30,0
2026-02-26 15:17:30,0
2026-02-26 15:17:30,0
2026-02-26 15:17:30,0
2026-02-26 15:17:30,0.01
2026-02-26 15:17:30,0
2026-02-26 15:17:30,-0.01
2026-02-26 15:17:30,0.01
2026-02-26 15:17:30,0
2026-02-26 15:17:30,-0.01
2026-02-26 15:17:30,0.01
2026-02-26 15:17:30,0.01
2026-02-26 15:17:30,-0.01
2026-02-26 15:17:30,0
2026-02-26 15:17:30,0.01
2026-02-26 15:17:30,-0.01
2026-02-26 15:17:30,0
2026-02-26 15:17:30,0
2026-02-26 15:17:30,-0.01
2026-02-26 15:17:30,0.02
2026-02-26 15:17:30,-0.02
2026-02-26 15:17:30,0
2026-02-26 15:17:30,0
2026-02-26 15:17:30,0.01
2026-02-26 15:17:30,-0.02
2026-02-26 15:17:30,0.01
2026-02-26 15:17:30,0.01
2026-02-26 15:17:30,-0.02
2026-02-26 15:17:30,0.01
2026-02-26 15:17:30,0
2026-02-26 15:17:30,0.01
2026-02-26 15:17:30,-0.01
2026-02-26 15:17:30,0.01
2026-02-26 15:17:30,0
2026-02-26 15:17:30,0
2026-02-26 15:17:30,-0.01
2026-02-26 15:17:30,0.01
2026-02-26 15:17:30,-0.01
2026-02-26 15:17:30,0
2026-02-26 15:17:30,0
2026-02-26 15:17:30,0
2026-02-26 15:17:30,-0.01
2026-02-26 15:17:30,0.02
2026-02-26 15:17:30,-0.02
2026-02-26 15:17:30,0.02
2026-02-26 15:17:30,-0.01
2026-02-26 15:17:30,0.01
2026-02-26 15:17:30,0
2026-02-26 15:17:30,0
2026-02-26 15:17:30,-0.01
2026-02-26 15:17:30,0.01
2026-02-26 15:17:30,-0.01
2026-02-26 15:17:30,0.02
2026-02-26 15:17:30,-0.02
2026-02-26 15:17:30,0.01
2026-02-26 15:17:30,-0.01
2026-02-26 15:17:30,0.02
2026-02-26 15:17:30,-0.01
2026-02-26 15:17:30,0
2026-02-26 15:17:30,0.01
2026-02-26 15:17:31,-0.01
2026-02-26 15:17:31,0
2026-02-26 15:17:31,0.01
2026-02-26 15:17:31,-0.01
2026-02-26 15:17:31,0.01
2026-02-26 15:17:31,0
2026-02-26 15:17:31,0
2026-02-26 15:17:31,0
2026-02-26 15:17:31,0.01
2026-02-26 15:17:31,-0.01
2026-02-26 15:17:31,0.01
2026-02-26 15:17:31,-0.01
2026-02-26 15:17:31,0.01
2026-02-26 15:17:31,-0.02
2026-02-26 15:17:31,0.03
2026-02-26 15:17:31,-0.02
2026-02-26 15:17:31,0.01
2026-02-26 15:17:31,0
2026-02-26 15:17:31,0
2026-02-26 15:17:31,0
2026-02-26 15:17:31,0
2026-02-26 15:17:31,-0.01
2026-02-26 15:17:31,0.01
2026-02-26 15:17:31,-0.01
2026-02-26 15:17:31,0
2026-02-26 15:17:31,0
2026-02-26 15:17:31,0
2026-02-26 15:17:31,-0.01
2026-02-26 15:17:31,0.02
2026-02-26 15:17:31,-0.02
2026-02-26 15:17:31,0.02
2026-02-26 15:17:31,-0.02
2026-02-26 15:17:31,0
2026-02-26 15:17:31,0.01
2026-02-26 15:17:31,0
2026-02-26 15:17:31,-0.01
2026-02-26 15:17:31,0.02
2026-02-26 15:17:31,-0.01
2026-02-26 15:17:31,0.01
2026-02-26 15:17:31,-0.01
2026-02-26 15:17:31,0.01
2026-02-26 15:17:31,-0.01
2026-02-26 15:17:31,0.01
2026-02-26 15:17:31,-0.01
2026-02-26 15:17:31,0
2026-02-26 15:17:31,0
2026-02-26 15:17:31,0.01
2026-02-26 15:17:31,-0.01
2026-02-26 15:17:31,0.01
2026-02-26 15:17:31,-0.02
2026-02-26 15:17:31,0.02
2026-02-26 15:17:31,-0.02
2026-02-26 15:17:31,0.01
2026-02-26 15:17:31,0
2026-02-26 15:17:31,0
2026-02-26 15:17:31,0
2026-02-26 15:17:31,0
2026-02-26 15:17:31,0
2026-02-26 15:17:31,0
2026-02-26 15:17:31,0
2026-02-26 15:17:31,0
2026-02-26 15:17:31,-0.01
2026-02-26 15:17:31,0.01
2026-02-26 15:17:31,-0.01
2026-02-26 15:17:31,0
2026-02-26 15:17:31,0.01
2026-02-26 15:17:31,-0.01
2026-02-26 15:17:31,0.01
2026-02-26 15:17:31,0
2026-02-26 15:17:31,0
2026-02-26 15:17:31,0
2026-02-26 15:17:31,0
2026-02-26 15:17:31,-0.01
2026-02-26 15:17:31,0.02
2026-02-26 15:17:31,-0.01
2026-02-26 15:17:32,0
2026-02-26 15:17:32,0
2026-02-26 15:17:32,0
2026-02-26 15:17:32,0
2026-02-26 15:17:32,0
2026-02-26 15:17:32,0
2026-02-26 15:17:32,0
2026-02-26 15:17:32,0
2026-02-26 15:17:32,0
2026-02-26 15:17:32,0
2026-02-26 15:17:32,0
2026-02-26 15:17:32,-0.01
2026-02-26 15:17:32,0.01
2026-02-26 15:17:32,0
2026-02-26 15:17:32,0.01
2026-02-26 15:17:32,-0.02
2026-02-26 15:17:32,0.02
2026-02-26 15:17:32,-0.02
2026-02-26 15:17:32,0.01
2026-02-26 15:17:32,-0.01
2026-02-26 15:17:32,0.02
2026-02-26 15:17:32,-0.01
2026-02-26 15:17:32,0
2026-02-26 15:17:32,0
2026-02-26 15:17:32,0.01
2026-02-26 15:17:32,0
2026-02-26 15:17:32,0.01
2026-02-26 15:17:32,-0.01
2026-02-26 15:17:32,0.02
2026-02-26 15:17:32,-0.01
2026-02-26 15:17:32,0
2026-02-26 15:17:32,0
2026-02-26 15:17:32,0
2026-02-26 15:17:32,0
2026-02-26 15:17:32,0
2026-02-26 15:17:32,0
2026-02-26 15:17:32,0
2026-02-26 15:17:32,-0.01
2026-02-26 15:17:32,0.01
2026-02-26 15:17:32,-0.01
2026-02-26 15:17:32,0
2026-02-26 15:17:32,0
2026-02-26 15:17:32,0
2026-02-26 15:17:32,0
2026-02-26 15:17:32,0
2026-02-26 15:17:32,0.01
2026-02-26 15:17:32,0
2026-02-26 15:17:32,-0.01
2026-02-26 15:17:32,0.01
2026-02-26 15:17:32,-0.01
2026-02-26 15:17:32,0.01
2026-02-26 15:17:32,-0.01
2026-02-26 15:17:32,0
2026-02-26 15:17:32,0
2026-02-26 15:17:32,0.01
2026-02-26 15:17:32,-0.01
2026-02-26 15:17:32,0
2026-02-26 15:17:32,0
2026-02-26 15:17:32,0
2026-02-26 15:17:32,0
2026-02-26 15:17:32,0
2026-02-26 15:17:32,0
2026-02-26 15:17:32,0
2026-02-26 15:17:32,0
2026-02-26 15:17:32,0
2026-02-26 15:17:32,-0.01
2026-02-26 15:17:32,0.01
2026-02-26 15:17:32,-0.01
2026-02-26 15:17:32,0.01
2026-02-26 15:17:32,-0.01
2026-02-26 15:17:32,0.01
2026-02-26 15:17:32,-0.01
2026-02-26 15:17:32,0.01
2026-02-26 15:17:32,-0.01
2026-02-26 15:17:32,0
2026-02-26 15:17:33,-0.01
2026-02-26 15:17:33,0.01
2026-02-26 15:17:33,-0.01
2026-02-26 15:17:33,0.01
2026-02-26 15:17:33,0
2026-02-26 15:17:33,0
2026-02-26 15:17:33,-0.01
2026-02-26 15:17:33,0.02
2026-02-26 15:17:33,-0.02
2026-02-26 15:17:33,0.01
2026-02-26 15:17:33,-0.01
2026-02-26 15:17:33,0.01
2026-02-26 15:17:33,0
2026-02-26 15:17:33,0
2026-02-26 15:17:33,-0.01
2026-02-26 15:17:33,0.01
2026-02-26 15:17:33,-0.01
2026-02-26 15:17:33,0.01
2026-02-26 15:17:33,-0.01
2026-02-26 15:17:33,0.01
2026-02-26 15:17:33,-0.01
2026-02-26 15:17:33,0.01
2026-02-26 15:17:33,-0.01
2026-02-26 15:17:33,0.01
2026-02-26 15:17:33,-0.01
2026-02-26 15:17:33,0.01
2026-02-26 15:17:33,-0.01
2026-02-26 15:17:33,0
2026-02-26 15:17:33,0
2026-02-26 15:17:33,0
2026-02-26 15:17:33,-0.01
2026-02-26 15:17:33,0.01
2026-02-26 15:17:33,-0.02
2026-02-26 15:17:33,0.02
2026-02-26 15:17:33,-0.02
2026-02-26 15:17:33,0.02
2026-02-26 15:17:33,-0.02
2026-02-26 15:17:33,0.01
2026-02-26 15:17:33,-0.01
2026-02-26 15:17:33,0.01
2026-02-26 15:17:33,-0.01
2026-02-26 15:17:33,0.01
2026-02-26 15:17:33,-0.02
2026-02-26 15:17:33,0.02
2026-02-26 15:17:33,-0.01
2026-02-26 15:17:33,0.01
2026-02-26 15:17:33,-0.01
2026-02-26 15:17:33,0.01
2026-02-26 15:17:33,-0.01
2026-02-26 15:17:33,0.01
2026-02-26 15:17:33,-0.01
2026-02-26 15:17:33,0.01
2026-02-26 15:17:33,0
2026-02-26 15:17:33,0
2026-02-26 15:17:33,0
2026-02-26 15:17:33,0
2026-02-26 15:17:33,-0.01
2026-02-26 15:17:33,0.01
2026-02-26 15:17:33,-0.01
2026-02-26 15:17:33,0.01
2026-02-26 15:17:33,-0.01
2026-02-26 15:17:33,0.01
2026-02-26 15:17:33,-0.01
2026-02-26 15:17:33,0.01
2026-02-26 15:17:33,-0.01
2026-02-26 15:17:33,0.01
2026-02-26 15:17:33,0
2026-02-26 15:17:33,0
2026-02-26 15:17:33,0
2026-02-26 15:17:33,0
2026-02-26 15:17:33,0
2026-02-26 15:17:33,0
2026-02-26 15:17:33,0
2026-02-26 15:17:33,0.01
2026-02-26 15:17:33,0
2026-02-26 15:17:34,0
2026-02-26 15:17:34,0
2026-02-26 15:17:34,-0.01
2026-02-26 15:17:34,0.01
2026-02-26 15:17:34,-0.01
2026-02-26 15:17:34,0.01
2026-02-26 15:17:34,-0.01
2026-02-26 15:17:34,0.01
2026-02-26 15:17:34,-0.01
2026-02-26 15:17:34,0
2026-02-26 15:17:34,0
2026-02-26 15:17:34,0
2026-02-26 15:17:34,0
2026-02-26 15:17:34,0
2026-02-26 15:17:34,0.01
2026-02-26 15:17:34,0
2026-02-26 15:17:34,0
2026-02-26 15:17:34,0
2026-02-26 15:17:34,-0.01
2026-02-26 15:17:34,0.01
2026-02-26 15:17:34,-0.01
2026-02-26 15:17:34,0.01
2026-02-26 15:17:34,-0.01
2026-02-26 15:17:34,0
2026-02-26 15:17:34,0
2026-02-26 15:17:34,0
2026-02-26 15:17:34,0
2026-02-26 15:17:34,0
2026-02-26 15:17:34,0
2026-02-26 15:17:34,0.01
2026-02-26 15:17:34,-0.02
2026-02-26 15:17:34,0.02
2026-02-26 15:17:34,-0.01
2026-02-26 15:17:34,0.01
2026-02-26 15:17:34,-0.02
2026-02-26 15:17:34,0.01
2026-02-26 15:17:34,0
2026-02-26 15:17:34,0.01
2026-02-26 15:17:34,-0.02
2026-02-26 15:17:34,0.03
2026-02-26 15:17:34,-0.02
2026-02-26 15:17:34,0.01
2026-02-26 15:17:34,-0.01
2026-02-26 15:17:34,0.01
2026-02-26 15:17:34,-0.01
2026-02-26 15:17:34,0.01
2026-02-26 15:17:34,-0.01
2026-02-26 15:17:34,0.01
2026-02-26 15:17:34,-0.01
2026-02-26 15:17:34,0.01
2026-02-26 15:17:34,-0.01
2026-02-26 15:17:34,0.01
2026-02-26 15:17:34,-0.01
2026-02-26 15:17:34,0
2026-02-26 15:17:34,0
2026-02-26 15:17:34,0
2026-02-26 15:17:34,0
2026-02-26 15:17:34,0.01
2026-02-26 15:17:34,-0.01
2026-02-26 15:17:34,0
2026-02-26 15:17:34,0
2026-02-26 15:17:34,0
2026-02-26 15:17:34,0
2026-02-26 15:17:34,0
2026-02-26 15:17:34,0
2026-02-26 15:17:34,0.01
2026-02-26 15:17:34,-0.01
2026-02-26 15:17:34,0.01
2026-02-26 15:17:34,0
2026-02-26 15:17:34,0
2026-02-26 15:17:34,0
2026-02-26 15:17:34,0
2026-02-26 15:17:34,-0.01
2026-02-26 15:17:34,0.01
2026-02-26 15:17:34,0
2026-02-26 15:17:35,-0.01
2026-02-26 15:17:35,0.01
2026-02-26 15:17:35,-0.01
2026-02-26 15:17:35,0
2026-02-26 15:17:35,-0.01
2026-02-26 15:17:35,0.01
2026-02-26 15:17:35,-0.01
2026-02-26 15:17:35,0
2026-02-26 15:17:35,-0.01
2026-02-26 15:17:35,0.01
2026-02-26 15:17:35,0
2026-02-26 15:17:35,0
2026-02-26 15:17:35,0
2026-02-26 15:17:35,0.01
2026-02-26 15:17:35,0
2026-02-26 15:17:35,-0.01
2026-02-26 15:17:35,0.01
2026-02-26 15:17:35,0.01
2026-02-26 15:17:35,-0.02
2026-02-26 15:17:35,0.01
2026-02-26 15:17:35,-0.01
2026-02-26 15:17:35,0
2026-02-26 15:17:35,0
2026-02-26 15:17:35,0
2026-02-26 15:17:35,0
2026-02-26 15:17:35,0.01
2026-02-26 15:17:35,-0.01
2026-02-26 15:17:35,0
2026-02-26 15:17:35,0
2026-02-26 15:17:35,0.01
2026-02-26 15:17:35,-0.01
2026-02-26 15:17:35,0.02
2026-02-26 15:17:35,-0.01
2026-02-26 15:17:35,0.01
2026-02-26 15:17:35,-0.01
2026-02-26 15:17:35,0.01
2026-02-26 15:17:35,-0.01
2026-02-26 15:17:35,0.01
2026-02-26 15:17:35,-0.01
2026-02-26 15:17:35,0
2026-02-26 15:17:35,0
2026-02-26 15:17:35,0.01
2026-02-26 15:17:35,-0.02
2026-02-26 15:17:35,0.02
2026-02-26 15:17:35,-0.01
2026-02-26 15:17:35,0
2026-02-26 15:17:35,-0.01
2026-02-26 15:17:35,0.01
2026-02-26 15:17:35,-0.02
2026-02-26 15:17:35,0.02
2026-02-26 15:17:35,-0.01
2026-02-26 15:17:35,0.01
2026-02-26 15:17:35,-0.01
2026-02-26 15:17:35,0
2026-02-26 15:17:35,-0.01
2026-02-26 15:17:35,0.01
2026-02-26 15:17:35,-0.01
2026-02-26 15:17:35,0
2026-02-26 15:17:35,-0.01
2026-02-26 15:17:35,0.01
2026-02-26 15:17:35,-0.01
2026-02-26 15:17:35,0.01
2026-02-26 15:17:35,-0.01
2026-02-26 15:17:35,0.01
2026-02-26 15:17:35,0
2026-02-26 15:17:35,0
2026-02-26 15:17:35,0
2026-02-26 15:17:35,0.01
2026-02-26 15:17:35,-0.01
2026-02-26 15:17:35,0
2026-02-26 15:17:35,0
2026-02-26 15:17:35,0
2026-02-26 15:17:35,-0.01
2026-02-26 15:17:35,0
2026-02-26 15:17:35,0
2026-02-26 15:17:36,0
2026-02-26 15:17:36,0
2026-02-26 15:17:36,0.01
2026-02-26 15:17:36,-0.01
2026-02-26 15:17:36,0
2026-02-26 15:17:36,0
2026-02-26 15:17:36,0.01
2026-02-26 15:17:36,-0.01
2026-02-26 15:17:36,0
2026-02-26 15:17:36,0
2026-02-26 15:17:36,0
2026-02-26 15:17:36,0
2026-02-26 15:17:36,0
2026-02-26 15:17:36,0
2026-02-26 15:17:36,0.01
2026-02-26 15:17:36,0
2026-02-26 15:17:36,0
2026-02-26 15:17:36,0.01
2026-02-26 15:17:36,-0.01
2026-02-26 15:17:36,0
2026-02-26 15:17:36,0
2026-02-26 15:17:36,0
2026-02-26 15:17:36,0
2026-02-26 15:17:36,0
2026-02-26 15:17:36,0
2026-02-26 15:17:36,0
2026-02-26 15:17:36,0
2026-02-26 15:17:36,0
2026-02-26 15:17:36,0.01
2026-02-26 15:17:36,0
2026-02-26 15:17:36,0
2026-02-26 15:17:36,0
2026-02-26 15:17:36,0
2026-02-26 15:17:36,0
2026-02-26 15:17:36,0
2026-02-26 15:17:36,0
2026-02-26 15:17:36,-0.01
2026-02-26 15:17:36,0.01
2026-02-26 15:17:36,-0.01
2026-02-26 15:17:36,0.01
2026-02-26 15:17:36,-0.01
2026-02-26 15:17:36,0
2026-02-26 15:17:36,0
2026-02-26 15:17:36,0
2026-02-26 15:17:36,0
2026-02-26 15:17:36,0
2026-02-26 15:17:36,0
2026-02-26 15:17:36,0.01
2026-02-26 15:17:36,-0.01
2026-02-26 15:17:36,0
2026-02-26 15:17:36,0
2026-02-26 15:17:36,0
2026-02-26 15:17:36,0
2026-02-26 15:17:36,0
2026-02-26 15:17:36,0
2026-02-26 15:17:36,0.01
2026-02-26 15:17:36,-0.01
2026-02-26 15:17:36,0.01
2026-02-26 15:17:36,-0.01
2026-02-26 15:17:36,0
2026-02-26 15:17:36,0
2026-02-26 15:17:36,0.01
2026-02-26 15:17:36,-0.01
2026-02-26 15:17:36,0
2026-02-26 15:17:36,0.01
2026-02-26 15:17:36,-0.01
2026-02-26 15:17:36,0
2026-02-26 15:17:36,0.01
2026-02-26 15:17:36,0
2026-02-26 15:17:36,0
2026-02-26 15:17:36,0
2026-02-26 15:17:36,0
2026-02-26 15:17:36,-0.01
2026-02-26 15:17:36,0.01
2026-02-26 15:17:36,-0.01
2026-02-26 15:17:37,0.01
2026-02-26 15:17:37,0
2026-02-26 15:17:37,0
2026-02-26 15:17:37,-0.01
2026-02-26 15:17:37,0.01
2026-02-26 15:17:37,-0.01
2026-02-26 15:17:37,0.01
2026-02-26 15:17:37,0
2026-02-26 15:17:37,-0.01
2026-02-26 15:17:37,0
2026-02-26 15:17:37,0.01
2026-02-26 15:17:37,-0.01
2026-02-26 15:17:37,0
2026-02-26 15:17:37,0
2026-02-26 15:17:37,0.01
2026-02-26 15:17:37,-0.01
2026-02-26 15:17:37,0
2026-02-26 15:17:37,0
2026-02-26 15:17:37,0.01
2026-02-26 15:17:37,0
2026-02-26 15:17:37,-0.01
2026-02-26 15:17:37,0
2026-02-26 15:17:37,0
2026-02-26 15:17:37,0
2026-02-26 15:17:37,0
2026-02-26 15:17:37,0
2026-02-26 15:17:37,-0.01
2026-02-26 15:17:37,0.02
2026-02-26 15:17:37,-0.01
2026-02-26 15:17:37,0
2026-02-26 15:17:37,0.01
2026-02-26 15:17:37,0
2026-02-26 15:17:37,0
2026-02-26 15:17:37,0
2026-02-26 15:17:37,0
2026-02-26 15:17:37,0
2026-02-26 15:17:37,0
2026-02-26 15:17:37,0
2026-02-26 15:17:37,0
2026-02-26 15:17:37,0.01
2026-02-26 15:17:37,0
2026-02-26 15:17:37,-0.01
2026-02-26 15:17:37,0.01
2026-02-26 15:17:37,0
2026-02-26 15:17:37,0
2026-02-26 15:17:37,0
2026-02-26 15:17:37,0
2026-02-26 15:17:37,0
2026-02-26 15:17:37,0
2026-02-26 15:17:37,0
2026-02-26 15:17:37,0
2026-02-26 15:17:37,0
2026-02-26 15:17:37,-0.01
2026-02-26 15:17:37,0.01
2026-02-26 15:17:37,-0.01
2026-02-26 15:17:37,0.01
2026-02-26 15:17:37,-0.01
2026-02-26 15:17:37,0.01
2026-02-26 15:17:37,0
2026-02-26 15:17:37,-0.01
2026-02-26 15:17:37,0.01
2026-02-26 15:17:37,0
2026-02-26 15:17:37,-0.02
2026-02-26 15:17:37,0.01
2026-02-26 15:17:37,0.01
2026-02-26 15:17:37,-0.01
2026-02-26 15:17:37,-0.01
2026-02-26 15:17:37,0.02
2026-02-26 15:17:37,-0.02
2026-02-26 15:17:37,0.01
2026-02-26 15:17:37,-0.01
2026-02-26 15:17:37,0.01
2026-02-26 15:17:37,0
2026-02-26 15:17:37,0
2026-02-26 15:17:37,0
2026-02-26 15:17:38,0
2026-02-26 15:17:38,-0.01
2026-02-26 15:17:38,0.01
2026-02-26 15:17:38,-0.01
2026-02-26 15:17:38,0.01
2026-02-26 15:17:38,-0.01
2026-02-26 15:17:38,0
2026-02-26 15:17:38,0
2026-02-26 15:17:38,0
2026-02-26 15:17:38,0
2026-02-26 15:17:38,0
2026-02-26 15:17:38,-0.01
2026-02-26 15:17:38,0.01
2026-02-26 15:17:38,-0.02
2026-02-26 15:17:38,0.01
2026-02-26 15:17:38,0
2026-02-26 15:17:38,0
2026-02-26 15:17:38,-0.01
2026-02-26 15:17:38,0.01
2026-02-26 15:17:38,-0.01
2026-02-26 15:17:38,0
2026-02-26 15:17:38,0
2026-02-26 15:17:38,0
2026-02-26 15:17:38,0
2026-02-26 15:17:38,0.01
2026-02-26 15:17:38,-0.01
2026-02-26 15:17:38,0
2026-02-26 15:17:38,0
2026-02-26 15:17:38,0
2026-02-26 15:17:38,-0.01
2026-02-26 15:17:38,0.01
2026-02-26 15:17:38,-0.01
2026-02-26 15:17:38,0
2026-02-26 15:17:38,0
2026-02-26 15:17:38,0
2026-02-26 15:17:38,-0.01
2026-02-26 15:17:38,0.01
2026-02-26 15:17:38,-0.01
2026-02-26 15:17:38,0
2026-02-26 15:17:38,0
2026-02-26 15:17:38,-0.01
2026-02-26 15:17:38,0
2026-02-26 15:17:38,0.01
2026-02-26 15:17:38,-0.01
2026-02-26 15:17:38,0
2026-02-26 15:17:38,0
2026-02-26 15:17:38,0.01
2026-02-26 15:17:38,-0.01
2026-02-26 15:17:38,0.01
2026-02-26 15:17:38,-0.01
2026-02-26 15:17:38,0.01
2026-02-26 15:17:38,-0.01
2026-02-26 15:17:38,0
2026-02-26 15:17:38,0
2026-02-26 15:17:38,0.01
2026-02-26 15:17:38,0
2026-02-26 15:17:38,-0.01
2026-02-26 15:17:38,0.01
2026-02-26 15:17:38,0
2026-02-26 15:17:38,-0.01
2026-02-26 15:17:38,0
2026-02-26 15:17:38,0.01
2026-02-26 15:17:38,0
2026-02-26 15:17:38,0
2026-02-26 15:17:38,0
2026-02-26 15:17:38,0
2026-02-26 15:17:38,0
2026-02-26 15:17:38,0.01
2026-02-26 15:17:38,-0.01
2026-02-26 15:17:38,0.01
2026-02-26 15:17:38,-0.01
2026-02-26 15:17:38,0
2026-02-26 15:17:38,0
2026-02-26 15:17:38,0
2026-02-26 15:17:38,-0.01
2026-02-26 15:17:39,0.01
2026-02-26 15:17:39,0
2026-02-26 15:17:39,0
2026-02-26 15:17:39,0
2026-02-26 15:17:39,0
2026-02-26 15:17:39,0
2026-02-26 15:17:39,0
2026-02-26 15:17:39,0
2026-02-26 15:17:39,-0.01
2026-02-26 15:17:39,0
2026-02-26 15:17:39,0
2026-02-26 15:17:39,0
2026-02-26 15:17:39,0.01
2026-02-26 15:17:39,-0.01
2026-02-26 15:17:39,0.01
2026-02-26 15:17:39,0
2026-02-26 15:17:39,0
2026-02-26 15:17:39,-0.01
2026-02-26 15:17:39,0.02
2026-02-26 15:17:39,-0.02
2026-02-26 15:17:39,0
2026-02-26 15:17:39,0.01
2026-02-26 15:17:39,-0.01
2026-02-26 15:17:39,0.01
2026-02-26 15:17:39,0
2026-02-26 15:17:39,0
2026-02-26 15:17:39,0
2026-02-26 15:17:39,0
2026-02-26 15:17:39,0
2026-02-26 15:17:39,-0.01
2026-02-26 15:17:39,0.01
2026-02-26 15:17:39,0
2026-02-26 15:17:39,0
2026-02-26 15:17:39,-0.01
2026-02-26 15:17:39,0.02
2026-02-26 15:17:39,-0.02
2026-02-26 15:17:39,0.01
2026-02-26 15:17:39,0
2026-02-26 15:17:39,0
2026-02-26 15:17:39,-0.01
2026-02-26 15:17:39,0.02
2026-02-26 15:17:39,-0.02
2026-02-26 15:17:39,0.02
2026-02-26 15:17:39,-0.01
2026-02-26 15:17:39,0
2026-02-26 15:17:39,-0.01
2026-02-26 15:17:39,0.01
2026-02-26 15:17:39,-0.01
2026-02-26 15:17:39,0
2026-02-26 15:17:39,0
2026-02-26 15:17:39,0
2026-02-26 15:17:39,0
2026-02-26 15:17:39,0
2026-02-26 15:17:39,0
2026-02-26 15:17:39,0
2026-02-26 15:17:39,0.01
2026-02-26 15:17:39,0
2026-02-26 15:17:39,0
2026-02-26 15:17:39,0
2026-02-26 15:17:39,0
2026-02-26 15:17:39,-0.01
2026-02-26 15:17:39,0
2026-02-26 15:17:39,0
2026-02-26 15:17:39,0
2026-02-26 15:17:39,0
2026-02-26 15:17:39,0
2026-02-26 15:17:39,-0.01
2026-02-26 15:17:39,0.01
2026-02-26 15:17:39,0
2026-02-26 15:17:39,0
2026-02-26 15:17:39,-0.01
2026-02-26 15:17:39,0.01
2026-02-26 15:17:39,0
2026-02-26 15:17:39,0
2026-02-26 15:17:39,-0.01
2026-02-26 15:17:40,0.01
2026-02-26 15:17:40,0
2026-02-26 15:17:40,-0.01
2026-02-26 15:17:40,0
2026-02-26 15:17:40,0.01
2026-02-26 15:17:40,-0.01
2026-02-26 15:17:40,0.01
2026-02-26 15:17:40,-0.01
2026-02-26 15:17:40,0.01
2026-02-26 15:17:40,-0.01
2026-02-26 15:17:40,0
2026-02-26 15:17:40,0
2026-02-26 15:17:40,0
2026-02-26 15:17:40,-0.01
2026-02-26 15:17:40,0.01
2026-02-26 15:17:40,0
2026-02-26 15:17:40,0
2026-02-26 15:17:40,-0.01
2026-02-26 15:17:40,0.01
2026-02-26 15:17:40,0
2026-02-26 15:17:40,-0.01
2026-02-26 15:17:40,0.01
2026-02-26 15:17:40,0
2026-02-26 15:17:40,-0.01
2026-02-26 15:17:40,0.01
2026-02-26 15:17:40,0
2026-02-26 15:17:40,0
2026-02-26 15:17:40,0
2026-02-26 15:17:40,0
2026-02-26 15:17:40,0
2026-02-26 15:17:40,0
2026-02-26 15:17:40,0
2026-02-26 15:17:40,0
2026-02-26 15:17:40,0
2026-02-26 15:17:40,0
2026-02-26 15:17:40,0
2026-02-26 15:17:40,0
2026-02-26 15:17:40,0
2026-02-26 15:17:40,0
2026-02-26 15:17:40,0
2026-02-26 15:17:40,0
2026-02-26 15:17:40,-0.01
2026-02-26 15:17:40,0.02
2026-02-26 15:17:40,-0.01
2026-02-26 15:17:40,-0.01
2026-02-26 15:17:40,0.01
2026-02-26 15:17:40,-0.01
2026-02-26 15:17:40,0
2026-02-26 15:17:40,0.01
2026-02-26 15:17:40,-0.01
2026-02-26 15:17:40,0.01
2026-02-26 15:17:40,-0.01
2026-02-26 15:17:40,-0.01
2026-02-26 15:17:40,0.01
2026-02-26 15:17:40,-0.01
2026-02-26 15:17:40,0
2026-02-26 15:17:40,0
2026-02-26 15:17:40,0
2026-02-26 15:17:40,0
2026-02-26 15:17:40,0
2026-02-26 15:17:40,0.01
2026-02-26 15:17:40,-0.01
2026-02-26 15:17:40,0
2026-02-26 15:17:40,0.01
2026-02-26 15:17:40,0
2026-02-26 15:17:40,-0.01
2026-02-26 15:17:40,0.01
2026-02-26 15:17:40,0
2026-02-26 15:17:40,0
2026-02-26 15:17:40,0
2026-02-26 15:17:40,-0.01
2026-02-26 15:17:40,0.01
2026-02-26 15:17:40,0
2026-02-26 15:17:40,0
2026-02-26 15:17:40,-0.01
2026-02-26 15:17:41,0.01
2026-02-26 15:17:41,-0.01
2026-02-26 15:17:41,0.01
2026-02-26 15:17:41,-0.01
2026-02-26 15:17:41,0.01
2026-02-26 15:17:41,-0.01
2026-02-26 15:17:41,0.01
2026-02-26 15:17:41,-0.01
2026-02-26 15:17:41,0.01
2026-02-26 15:17:41,-0.01
2026-02-26 15:17:41,0.01
2026-02-26 15:17:41,-0.01
2026-02-26 15:17:41,0
2026-02-26 15:17:41,0
2026-02-26 15:17:41,0
2026-02-26 15:17:41,0
2026-02-26 15:17:41,0.02
2026-02-26 15:17:41,-0.02
2026-02-26 15:17:41,0.01
2026-02-26 15:17:41,-0.01
2026-02-26 15:17:41,0.01
2026-02-26 15:17:41,-0.01
2026-02-26 15:17:41,0.01
2026-02-26 15:17:41,0
2026-02-26 15:17:41,0.01
2026-02-26 15:17:41,-0.01
2026-02-26 15:17:41,0.01
2026-02-26 15:17:41,0
2026-02-26 15:17:41,0
2026-02-26 15:17:41,0.01
2026-02-26 15:17:41,-0.01
2026-02-26 15:17:41,0
2026-02-26 15:17:41,0.01
2026-02-26 15:17:41,-0.01
2026-02-26 15:17:41,-0.01
2026-02-26 15:17:41,0.02
2026-02-26 15:17:41,-0.01
2026-02-26 15:17:41,0.01
2026-02-26 15:17:41,-0.01
2026-02-26 15:17:41,0
2026-02-26 15:17:41,0.02
2026-02-26 15:17:41,-0.02
2026-02-26 15:17:41,0
2026-02-26 15:17:41,0.01
2026-02-26 15:17:41,-0.01
2026-02-26 15:17:41,0.01
2026-02-26 15:17:41,0
2026-02-26 15:17:41,0
2026-02-26 15:17:41,0
2026-02-26 15:17:41,0.01
2026-02-26 15:17:41,0
2026-02-26 15:17:41,-0.02
2026-02-26 15:17:41,0.02
2026-02-26 15:17:41,-0.01
2026-02-26 15:17:41,0
2026-02-26 15:17:41,0
2026-02-26 15:17:41,0
2026-02-26 15:17:41,-0.01
2026-02-26 15:17:41,0.01
2026-02-26 15:17:41,-0.01
2026-02-26 15:17:41,0
2026-02-26 15:17:41,0
2026-02-26 15:17:41,0
2026-02-26 15:17:41,0.01
2026-02-26 15:17:41,-0.01
2026-02-26 15:17:41,0
2026-02-26 15:17:41,0.01
2026-02-26 15:17:41,-0.01
2026-02-26 15:17:41,0
2026-02-26 15:17:41,-0.01
2026-02-26 15:17:41,0.01
2026-02-26 15:17:41,-0.01
2026-02-26 15:17:41,0
2026-02-26 15:17:41,0
2026-02-26 15:17:41,0.01
2026-02-26 15:17:42,-0.01
2026-02-26 15:17:42,0.01
2026-02-26 15:17:42,0
2026-02-26 15:17:42,0.01
2026-02-26 15:17:42,-0.02
2026-02-26 15:17:42,0.01
2026-02-26 15:17:42,0
2026-02-26 15:17:42,0.01
2026-02-26 15:17:42,-0.01
2026-02-26 15:17:42,0.01
2026-02-26 15:17:42,0
2026-02-26 15:17:42,0
2026-02-26 15:17:42,0
2026-02-26 15:17:42,0
2026-02-26 15:17:42,0
2026-02-26 15:17:42,0
2026-02-26 15:17:42,-0.01
2026-02-26 15:17:42,0.01
2026-02-26 15:17:42,-0.01
2026-02-26 15:17:42,0.01
2026-02-26 15:17:42,-0.01
2026-02-26 15:17:42,0
2026-02-26 15:17:42,0
2026-02-26 15:17:42,0.02
2026-02-26 15:17:42,-0.02
2026-02-26 15:17:42,0.01
2026-02-26 15:17:42,-0.01
2026-02-26 15:17:42,0.01
2026-02-26 15:17:42,-0.02
2026-02-26 15:17:42,0.02
2026-02-26 15:17:42,-0.01
2026-02-26 15:17:42,0.01
2026-02-26 15:17:42,-0.01
2026-02-26 15:17:42,0
2026-02-26 15:17:42,0.01
2026-02-26 15:17:42,-0.01
2026-02-26 15:17:42,-0.01
2026-02-26 15:17:42,0.02
2026-02-26 15:17:42,-0.02
2026-02-26 15:17:42,0.02
2026-02-26 15:17:42,-0.01
2026-02-26 15:17:42,0
2026-02-26 15:17:42,0
2026-02-26 15:17:42,0
2026-02-26 15:17:42,0
2026-02-26 15:17:42,0
2026-02-26 15:17:42,0
2026-02-26 15:17:42,0
2026-02-26 15:17:42,0.01
2026-02-26 15:17:42,-0.01
2026-02-26 15:17:42,0
2026-02-26 15:17:42,0.01
2026-02-26 15:17:42,-0.01
2026-02-26 15:17:42,0.01
2026-02-26 15:17:42,0
2026-02-26 15:17:42,0
2026-02-26 15:17:42,-0.01
2026-02-26 15:17:42,0.01
2026-02-26 15:17:42,0
2026-02-26 15:17:42,0
2026-02-26 15:17:42,0
2026-02-26 15:17:42,0
2026-02-26 15:17:42,-0.01
2026-02-26 15:17:42,0.02
2026-02-26 15:17:42,-0.02
2026-02-26 15:17:42,0.01
2026-02-26 15:17:42,0
2026-02-26 15:17:42,0
2026-02-26 15:17:42,-0.01
2026-02-26 15:17:42,0.01
2026-02-26 15:17:42,-0.01
2026-02-26 15:17:42,0
2026-02-26 15:17:42,0.01
2026-02-26 15:17:42,0
2026-02-26 15:17:42,0
2026-02-26 15:17:43,0.01
2026-02-26 15:17:43,-0.01
2026-02-26 15:17:43,0
2026-02-26 15:17:43,0
2026-02-26 15:17:43,0
2026-02-26 15:17:43,-0.01
2026-02-26 15:17:43,0.01
2026-02-26 15:17:43,0
2026-02-26 15:17:43,0
2026-02-26 15:17:43,0
2026-02-26 15:17:43,0
2026-02-26 15:17:43,0
2026-02-26 15:17:43,0
2026-02-26 15:17:43,0.01
2026-02-26 15:17:43,-0.01
2026-02-26 15:17:43,0.01
2026-02-26 15:17:43,0
2026-02-26 15:17:43,-0.01
2026-02-26 15:17:43,0.01
2026-02-26 15:17:43,0
2026-02-26 15:17:43,0
2026-02-26 15:17:43,-0.01
2026-02-26 15:17:43,0.01
2026-02-26 15:17:43,0
2026-02-26 15:17:43,0
2026-02-26 15:17:43,0
2026-02-26 15:17:43,0
2026-02-26 15:17:43,0
2026-02-26 15:17:43,0
2026-02-26 15:17:43,0
2026-02-26 15:17:43,0.01
2026-02-26 15:17:43,-0.01
2026-02-26 15:17:43,0
2026-02-26 15:17:43,0.01
2026-02-26 15:17:43,0
2026-02-26 15:17:43,-0.01
2026-02-26 15:17:43,0
2026-02-26 15:17:43,0
2026-02-26 15:17:43,0
2026-02-26 15:17:43,0
2026-02-26 15:17:43,-0.01
2026-02-26 15:17:43,0.01
2026-02-26 15:17:43,-0.01
2026-02-26 15:17:43,0.01
2026-02-26 15:17:43,-0.01
2026-02-26 15:17:43,0.02
2026-02-26 15:17:43,-0.01
2026-02-26 15:17:43,0
2026-02-26 15:17:43,0.01
2026-02-26 15:17:43,-0.01
2026-02-26 15:17:43,-0.01
2026-02-26 15:17:43,0.01
2026-02-26 15:17:43,-0.01
2026-02-26 15:17:43,0
2026-02-26 15:17:43,-0.01
2026-02-26 15:17:43,0.01
2026-02-26 15:17:43,-0.01
2026-02-26 15:17:43,0
2026-02-26 15:17:43,0.01
2026-02-26 15:17:43,0
2026-02-26 15:17:43,-0.01
2026-02-26 15:17:43,0
2026-02-26 15:17:43,0
2026-02-26 15:17:43,0.01
2026-02-26 15:17:43,-0.02
2026-02-26 15:17:43,0.02
2026-02-26 15:17:43,-0.01
2026-02-26 15:17:43,0.01
2026-02-26 15:17:43,-0.01
2026-02-26 15:17:43,0
2026-02-26 15:17:43,0.01
2026-02-26 15:17:43,0
2026-02-26 15:17:43,0
2026-02-26 15:17:43,0
2026-02-26 15:17:43,-0.02
2026-02-26 15:17:44,0.02
2026-02-26 15:17:44,-0.01
2026-02-26 15:17:44,0.01
2026-02-26 15:17:44,0
2026-02-26 15:17:44,0.01
2026-02-26 15:17:44,-0.02
2026-02-26 15:17:44,0.02
2026-02-26 15:17:44,-0.01
2026-02-26 15:17:44,0
2026-02-26 15:17:44,0
2026-02-26 15:17:44,0
2026-02-26 15:17:44,0
2026-02-26 15:17:44,0
2026-02-26 15:17:44,-0.01
2026-02-26 15:17:44,0.01
2026-02-26 15:17:44,-0.01
2026-02-26 15:17:44,0
2026-02-26 15:17:44,0
2026-02-26 15:17:44,0
2026-02-26 15:17:44,0
2026-02-26 15:17:44,-0.01
2026-02-26 15:17:44,0
2026-02-26 15:17:44,0
2026-02-26 15:17:44,0
2026-02-26 15:17:44,0.01
2026-02-26 15:17:44,-0.01
2026-02-26 15:17:44,0.01
2026-02-26 15:17:44,-0.01
2026-02-26 15:17:44,0
2026-02-26 15:17:44,0
2026-02-26 15:17:44,0
2026-02-26 15:17:44,-0.01
2026-02-26 15:17:44,0.01
2026-02-26 15:17:44,0
2026-02-26 15:17:44,-0.01
2026-02-26 15:17:44,0.01
2026-02-26 15:17:44,-0.01
2026-02-26 15:17:44,0
2026-02-26 15:17:44,0.01
2026-02-26 15:17:44,-0.01
2026-02-26 15:17:44,0
2026-02-26 15:17:44,0
2026-02-26 15:17:44,0.01
2026-02-26 15:17:44,0
2026-02-26 15:17:44,0
2026-02-26 15:17:44,0
2026-02-26 15:17:44,0
2026-02-26 15:17:44,-0.01
2026-02-26 15:17:44,0
2026-02-26 15:17:44,0
2026-02-26 15:17:44,0
2026-02-26 15:17:44,0
2026-02-26 15:17:44,0
2026-02-26 15:17:44,0
2026-02-26 15:17:44,-0.01
2026-02-26 15:17:44,0.01
2026-02-26 15:17:44,-0.01
2026-02-26 15:17:44,-0.01
2026-02-26 15:17:44,0.02
2026-02-26 15:17:44,-0.01
2026-02-26 15:17:44,0.01
2026-02-26 15:17:44,-0.01
2026-02-26 15:17:44,0
2026-02-26 15:17:44,0
2026-02-26 15:17:44,-0.01
2026-02-26 15:17:44,0.01
2026-02-26 15:17:44,-0.01
2026-02-26 15:17:44,0.01
2026-02-26 15:17:44,0
2026-02-26 15:17:44,0
2026-02-26 15:17:44,-0.01
2026-02-26 15:17:44,0.01
2026-02-26 15:17:44,-0.02
2026-02-26 15:17:44,0.02
2026-02-26 15:17:44,-0.01
2026-02-26 15:17:45,0
2026-02-26 15:17:45,0
2026-02-26 15:17:45,0
2026-02-26 15:17:45,0
2026-02-26 15:17:45,0.01
2026-02-26 15:17:45,-0.01
2026-02-26 15:17:45,0.01
2026-02-26 15:17:45,-0.01
2026-02-26 15:17:45,0.01
2026-02-26 15:17:45,0
2026-02-26 15:17:45,0
2026-02-26 15:17:45,0
2026-02-26 15:17:45,0
2026-02-26 15:17:45,-0.01
2026-02-26 15:17:45,0.01
2026-02-26 15:17:45,0
2026-02-26 15:17:45,0
2026-02-26 15:17:45,0
2026-02-26 15:17:45,0.01
2026-02-26 15:17:45,0
2026-02-26 15:17:45,0
2026-02-26 15:17:45,-0.01
2026-02-26 15:17:45,0.01
2026-02-26 15:17:45,-0.02
2026-02-26 15:17:45,0.01
2026-02-26 15:17:45,-0.01
2026-02-26 15:17:45,0.01
2026-02-26 15:17:45,-0.01
2026-02-26 15:17:45,0
2026-02-26 15:17:45,0
2026-02-26 15:17:45,0.01
2026-02-26 15:17:45,-0.01
2026-02-26 15:17:45,0.01
2026-02-26 15:17:45,-0.01
2026-02-26 15:17:45,0
2026-02-26 15:17:45,0
2026-02-26 15:17:45,0.01
2026-02-26 15:17:45,-0.02
2026-02-26 15:17:45,0.02
2026-02-26 15:17:45,-0.01
2026-02-26 15:17:45,0.01
2026-02-26 15:17:45,-0.02
2026-02-26 15:17:45,0.02
2026-02-26 15:17:45,-0.01
2026-02-26 15:17:45,0
2026-02-26 15:17:45,0
2026-02-26 15:17:45,0
2026-02-26 15:17:45,0
2026-02-26 15:17:45,0.01
2026-02-26 15:17:45,-0.01
2026-02-26 15:17:45,0.01
2026-02-26 15:17:45,-0.01
2026-02-26 15:17:45,0
2026-02-26 15:17:45,0
2026-02-26 15:17:45,-0.01
2026-02-26 15:17:45,0.01
2026-02-26 15:17:45,-0.01
2026-02-26 15:17:45,0
2026-02-26 15:17:45,0
2026-02-26 15:17:45,0
2026-02-26 15:17:45,0
2026-02-26 15:17:45,0
2026-02-26 15:17:45,0
2026-02-26 15:17:45,0
2026-02-26 15:17:45,0
2026-02-26 15:17:45,0
2026-02-26 15:17:45,0
2026-02-26 15:17:45,-0.01
2026-02-26 15:17:45,0.01
2026-02-26 15:17:45,0
2026-02-26 15:17:45,-0.01
2026-02-26 15:17:45,0
2026-02-26 15:17:45,0
2026-02-26 15:17:45,-0.01
2026-02-26 15:17:45,0
2026-02-26 15:17:46,0.01
2026-02-26 15:17:46,-0.02
2026-02-26 15:17:46,0.01
2026-02-26 15:17:46,0
2026-02-26 15:17:46,-0.01
2026-02-26 15:17:46,0.01
2026-02-26 15:17:46,0
2026-02-26 15:17:46,0
2026-02-26 15:17:46,0
2026-02-26 15:17:46,0.01
2026-02-26 15:17:46,0
2026-02-26 15:17:46,-0.01
2026-02-26 15:17:46,0.01
2026-02-26 15:17:46,0
2026-02-26 15:17:46,-0.01
2026-02-26 15:17:46,0
2026-02-26 15:17:46,0.02
2026-02-26 15:17:46,-0.01
2026-02-26 15:17:46,-0.01
2026-02-26 15:17:46,0
2026-02-26 15:17:46,0.01
2026-02-26 15:17:46,0
2026-02-26 15:17:46,-0.01
2026-02-26 15:17:46,0
2026-02-26 15:17:46,0.01
2026-02-26 15:17:46,-0.01
2026-02-26 15:17:46,0
2026-02-26 15:17:46,0
2026-02-26 15:17:46,0
2026-02-26 15:17:46,0
2026-02-26 15:17:46,0
2026-02-26 15:17:46,-0.01
2026-02-26 15:17:46,0.01
2026-02-26 15:17:46,-0.01
2026-02-26 15:17:46,0
2026-02-26 15:17:46,0
2026-02-26 15:17:46,0
2026-02-26 15:17:46,0
2026-02-26 15:17:46,0
2026-02-26 15:17:46,0
2026-02-26 15:17:46,0
2026-02-26 15:17:46,0
2026-02-26 15:17:46,0.01
2026-02-26 15:17:46,-0.01
2026-02-26 15:17:46,0.01
2026-02-26 15:17:46,0
2026-02-26 15:17:46,0
2026-02-26 15:17:46,0
2026-02-26 15:17:46,0
2026-02-26 15:17:46,-0.01
2026-02-26 15:17:46,0.01
2026-02-26 15:17:46,-0.01
2026-02-26 15:17:46,0
2026-02-26 15:17:46,-0.01
2026-02-26 15:17:46,0.02
2026-02-26 15:17:46,-0.01
2026-02-26 15:17:46,-0.01
2026-02-26 15:17:46,0
2026-02-26 15:17:46,0.01
2026-02-26 15:17:46,-0.01
2026-02-26 15:17:46,0
2026-02-26 15:17:46,0
2026-02-26 15:17:46,0
2026-02-26 15:17:46,0
2026-02-26 15:17:46,0
2026-02-26 15:17:46,0
2026-02-26 15:17:46,0
2026-02-26 15:17:46,0
2026-02-26 15:17:46,0
2026-02-26 15:17:46,0
2026-02-26 15:17:46,0
2026-02-26 15:17:46,-0.02
2026-02-26 15:17:46,0.01
2026-02-26 15:17:46,-0.01
2026-02-26 15:17:46,0.01
2026-02-26 15:17:47,-0.01
2026-02-26 15:17:47,0.01
2026-02-26 15:17:47,-0.01
2026-02-26 15:17:47,0.01
2026-02-26 15:17:47,-0.01
2026-02-26 15:17:47,0.01
2026-02-26 15:17:47,-0.01
2026-02-26 15:17:47,0.01
2026-02-26 15:17:47,-0.02
2026-02-26 15:17:47,0.02
2026-02-26 15:17:47,-0.02
2026-02-26 15:17:47,0.01
2026-02-26 15:17:47,0
2026-02-26 15:17:47,0
2026-02-26 15:17:47,-0.01
2026-02-26 15:17:47,0.02
2026-02-26 15:17:47,-0.01
2026-02-26 15:17:47,0.01
2026-02-26 15:17:47,0
2026-02-26 15:17:47,0
2026-02-26 15:17:47,0
2026-02-26 15:17:47,0
2026-02-26 15:17:47,0
2026-02-26 15:17:47,0
2026-02-26 15:17:47,0
2026-02-26 15:17:47,0
2026-02-26 15:17:47,-0.01
2026-02-26 15:17:47,0.01
2026-02-26 15:17:47,-0.01
2026-02-26 15:17:47,0.01
2026-02-26 15:17:47,-0.01
2026-02-26 15:17:47,0.01
2026-02-26 15:17:47,-0.01
2026-02-26 15:17:47,0.01
2026-02-26 15:17:47,0
2026-02-26 15:17:47,0.01
2026-02-26 15:17:47,-0.02
2026-02-26 15:17:47,0.01
2026-02-26 15:17:47,-0.01
2026-02-26 15:17:47,0.02
2026-02-26 15:17:47,-0.02
2026-02-26 15:17:47,0.01
2026-02-26 15:17:47,0
2026-02-26 15:17:47,0
2026-02-26 15:17:47,-0.01
2026-02-26 15:17:47,0.01
2026-02-26 15:17:47,0
2026-02-26 15:17:47,0
2026-02-26 15:17:47,0
2026-02-26 15:17:47,0
2026-02-26 15:17:47,-0.01
2026-02-26 15:17:47,0.01
2026-02-26 15:17:47,-0.01
2026-02-26 15:17:47,0.01
2026-02-26 15:17:47,-0.01
2026-02-26 15:17:47,0
2026-02-26 15:17:47,0
2026-02-26 15:17:47,0.01
2026-02-26 15:17:47,-0.01
2026-02-26 15:17:47,0
2026-02-26 15:17:47,0
2026-02-26 15:17:47,0
2026-02-26 15:17:47,0
2026-02-26 15:17:47,0
2026-02-26 15:17:47,0
2026-02-26 15:17:47,-0.01
2026-02-26 15:17:47,0
2026-02-26 15:17:47,0
2026-02-26 15:17:47,0.01
2026-02-26 15:17:47,-0.01
2026-02-26 15:17:47,0.01
2026-02-26 15:17:47,0
2026-02-26 15:17:47,0
2026-02-26 15:17:47,0
2026-02-26 15:17:47,0
2026-02-26 15:17:48,0
2026-02-26 15:17:48,0
2026-02-26 15:17:48,0
2026-02-26 15:17:48,0
2026-02-26 15:17:48,-0.01
2026-02-26 15:17:48,0.01
2026-02-26 15:17:48,0
2026-02-26 15:17:48,0
2026-02-26 15:17:48,0
2026-02-26 15:17:48,0.01
2026-02-26 15:17:48,-0.01
2026-02-26 15:17:48,0.01
2026-02-26 15:17:48,-0.01
2026-02-26 15:17:48,0
2026-02-26 15:17:48,0
2026-02-26 15:17:48,0
2026-02-26 15:17:48,-0.01
2026-02-26 15:17:48,0.01
2026-02-26 15:17:48,-0.01
2026-02-26 15:17:48,0.01
2026-02-26 15:17:48,-0.01
2026-02-26 15:17:48,0.01
2026-02-26 15:17:48,-0.01
2026-02-26 15:17:48,0
2026-02-26 15:17:48,0
2026-02-26 15:17:48,0
2026-02-26 15:17:48,0
2026-02-26 15:17:48,0
2026-02-26 15:17:48,-0.01
2026-02-26 15:17:48,0.01
2026-02-26 15:17:48,0
2026-02-26 15:17:48,0
2026-02-26 15:17:48,0
2026-02-26 15:17:48,0
2026-02-26 15:17:48,0
2026-02-26 15:17:48,0.01
2026-02-26 15:17:48,-0.01
2026-02-26 15:17:48,0.01
2026-02-26 15:17:48,-0.01
2026-02-26 15:17:48,0.01
2026-02-26 15:17:48,-0.01
2026-02-26 15:17:48,0.01
2026-02-26 15:17:48,0
2026-02-26 15:17:48,-0.01
2026-02-26 15:17:48,0.01
2026-02-26 15:17:48,0
2026-02-26 15:17:48,-0.01
2026-02-26 15:17:48,0
2026-02-26 15:17:48,0
2026-02-26 15:17:48,0
2026-02-26 15:17:48,0
2026-02-26 15:17:48,-0.01
2026-02-26 15:17:48,0
2026-02-26 15:17:48,0.01
2026-02-26 15:17:48,0
2026-02-26 15:17:48,0
2026-02-26 15:17:48,0
2026-02-26 15:17:48,0
2026-02-26 15:17:48,0
2026-02-26 15:17:48,0
2026-02-26 15:17:48,0
2026-02-26 15:17:48,0
2026-02-26 15:17:48,0
2026-02-26 15:17:48,0
2026-02-26 15:17:48,0
2026-02-26 15:17:48,0
2026-02-26 15:17:48,0.01
2026-02-26 15:17:48,-0.01
2026-02-26 15:17:48,0
2026-02-26 15:17:48,0
2026-02-26 15:17:48,0
2026-02-26 15:17:48,-0.01
2026-02-26 15:17:48,0.02
2026-02-26 15:17:48,-0.02
2026-02-26 15:17:48,0.01
2026-02-26 15:17:49,0
2026-02-26 15:17:49,0
2026-02-26 15:17:49,0
2026-02-26 15:17:49,0
2026-02-26 15:17:49,-0.01
2026-02-26 15:17:49,0.01
2026-02-26 15:17:49,0
2026-02-26 15:17:49,-0.01
2026-02-26 15:17:49,0
2026-02-26 15:17:49,0.01
2026-02-26 15:17:49,0
2026-02-26 15:17:49,0
2026-02-26 15:17:49,0.01
2026-02-26 15:17:49,-0.01
2026-02-26 15:17:49,0.01
2026-02-26 15:17:49,0
2026-02-26 15:17:49,-0.01
2026-02-26 15:17:49,0
2026-02-26 15:17:49,0
2026-02-26 15:17:49,0
2026-02-26 15:17:49,-0.01
2026-02-26 15:17:49,0.01
2026-02-26 15:17:49,0
2026-02-26 15:17:49,0
2026-02-26 15:17:49,0
2026-02-26 15:17:49,0
2026-02-26 15:17:49,0
2026-02-26 15:17:49,0
2026-02-26 15:17:49,0
2026-02-26 15:17:49,-0.01
2026-02-26 15:17:49,0.01
2026-02-26 15:17:49,-0.01
2026-02-26 15:17:49,0
2026-02-26 15:17:49,0.01
2026-02-26 15:17:49,-0.01
2026-02-26 15:17:49,0
2026-02-26 15:17:49,0
2026-02-26 15:17:49,-0.01
2026-02-26 15:17:49,0.01
2026-02-26 15:17:49,0
2026-02-26 15:17:49,0
2026-02-26 15:17:49,-0.02
2026-02-26 15:17:49,0.02
2026-02-26 15:17:49,0
2026-02-26 15:17:49,0
2026-02-26 15:17:49,0
2026-02-26 15:17:49,0
2026-02-26 15:17:49,0
2026-02-26 15:17:49,0.01
2026-02-26 15:17:49,0
2026-02-26 15:17:49,0
2026-02-26 15:17:49,-0.01
2026-02-26 15:17:49,0.01
2026-02-26 15:17:49,-0.01
2026-02-26 15:17:49,0.01
2026-02-26 15:17:49,-0.01
2026-02-26 15:17:49,0.02
2026-02-26 15:17:49,-0.01
2026-02-26 15:17:49,0
2026-02-26 15:17:49,0
2026-02-26 15:17:49,0
2026-02-26 15:17:49,-0.01
2026-02-26 15:17:49,0.01
2026-02-26 15:17:49,-0.01
2026-02-26 15:17:49,0.01
2026-02-26 15:17:49,-0.01
2026-02-26 15:17:49,0
2026-02-26 15:17:49,-0.01
2026-02-26 15:17:49,0
2026-02-26 15:17:49,0
2026-02-26 15:17:49,0
2026-02-26 15:17:49,0
2026-02-26 15:17:49,0
2026-02-26 15:17:49,-0.01
2026-02-26 15:17:49,0
2026-02-26 15:17:50,0
2026-02-26 15:17:50,0.01
2026-02-26 15:17:50,-0.01
2026-02-26 15:17:50,0
2026-02-26 15:17:50,0
2026-02-26 15:17:50,-0.01
2026-02-26 15:17:50,0
2026-02-26 15:17:50,0
2026-02-26 15:17:50,0.01
2026-02-26 15:17:50,-0.01
2026-02-26 15:17:50,0
2026-02-26 15:17:50,0
2026-02-26 15:17:50,0.01
2026-02-26 15:17:50,-0.01
2026-02-26 15:17:50,0
2026-02-26 15:17:50,0
2026-02-26 15:17:50,0
2026-02-26 15:17:50,-0.01
2026-02-26 15:17:50,0
2026-02-26 15:17:50,0
2026-02-26 15:17:50,0
2026-02-26 15:17:50,0
2026-02-26 15:17:50,0
2026-02-26 15:17:50,0
2026-02-26 15:17:50,-0.01
2026-02-26 15:17:50,0
2026-02-26 15:17:50,0.01
2026-02-26 15:17:50,-0.01
2026-02-26 15:17:50,0.01
2026-02-26 15:17:50,-0.01
2026-02-26 15:17:50,0.01
2026-02-26 15:17:50,-0.01
2026-02-26 15:17:50,0.01
2026-02-26 15:17:50,-0.01
2026-02-26 15:17:50,0
2026-02-26 15:17:50,0
2026-02-26 15:17:50,0.01
2026-02-26 15:17:50,-0.01
2026-02-26 15:17:50,0.01
2026-02-26 15:17:50,0
2026-02-26 15:17:50,0
2026-02-26 15:17:50,-0.01
2026-02-26 15:17:50,0.01
2026-02-26 15:17:50,-0.01
2026-02-26 15:17:50,0
2026-02-26 15:17:50,0
2026-02-26 15:17:50,0
2026-02-26 15:17:50,0
2026-02-26 15:17:50,0
2026-02-26 15:17:50,0
2026-02-26 15:17:50,0
2026-02-26 15:17:50,0
2026-02-26 15:17:50,0
2026-02-26 15:17:50,0
2026-02-26 15:17:50,0
2026-02-26 15:17:50,-0.01
2026-02-26 15:17:50,0.01
2026-02-26 15:17:50,-0.01
2026-02-26 15:17:50,0
2026-02-26 15:17:50,-0.01
2026-02-26 15:17:50,0.01
2026-02-26 15:17:50,0
2026-02-26 15:17:50,0
2026-02-26 15:17:50,-0.01
2026-02-26 15:17:50,0
2026-02-26 15:17:50,0
2026-02-26 15:17:50,0
2026-02-26 15:17:50,0
2026-02-26 15:17:50,0
2026-02-26 15:17:50,0
2026-02-26 15:17:50,0
2026-02-26 15:17:50,0
2026-02-26 15:17:50,0
2026-02-26 15:17:50,0
2026-02-26 15:17:50,0
2026-02-26 15:17:51,0
2026-02-26 15:17:51,0
2026-02-26 15:17:51,0
2026-02-26 15:17:51,0
2026-02-26 15:17:51,0
2026-02-26 15:17:51,0.01
2026-02-26 15:17:51,0
2026-02-26 15:17:51,0
2026-02-26 15:17:51,0
2026-02-26 15:17:51,0.01
2026-02-26 15:17:51,-0.01
2026-02-26 15:17:51,0
2026-02-26 15:17:51,0
2026-02-26 15:17:51,0.01
2026-02-26 15:17:51,-0.01
2026-02-26 15:17:51,0
2026-02-26 15:17:51,0
2026-02-26 15:17:51,0
2026-02-26 15:17:51,0
2026-02-26 15:17:51,0
2026-02-26 15:17:51,-0.01
2026-02-26 15:17:51,0
2026-02-26 15:17:51,0
2026-02-26 15:17:51,0.01
2026-02-26 15:17:51,-0.01
2026-02-26 15:17:51,0
2026-02-26 15:17:51,0
2026-02-26 15:17:51,0
2026-02-26 15:17:51,0
2026-02-26 15:17:51,0
2026-02-26 15:17:51,-0.01
2026-02-26 15:17:51,0
2026-02-26 15:17:51,0
2026-02-26 15:17:51,0
2026-02-26 15:17:51,-0.01
2026-02-26 15:17:51,0.01
2026-02-26 15:17:51,0
2026-02-26 15:17:51,0
2026-02-26 15:17:51,-0.01
2026-02-26 15:17:51,0.01
2026-02-26 15:17:51,-0.01
2026-02-26 15:17:51,0.01
2026-02-26 15:17:51,0
2026-02-26 15:17:51,0
2026-02-26 15:17:51,0
2026-02-26 15:17:51,0
2026-02-26 15:17:51,-0.01
2026-02-26 15:17:51,0.01
2026-02-26 15:17:51,-0.01
2026-02-26 15:17:51,0
2026-02-26 15:17:51,0
2026-02-26 15:17:51,0.01
2026-02-26 15:17:51,-0.01
2026-02-26 15:17:51,0.01
2026-02-26 15:17:51,0
2026-02-26 15:17:51,0
2026-02-26 15:17:51,0
2026-02-26 15:17:51,0
2026-02-26 15:17:51,0
2026-02-26 15:17:51,0
2026-02-26 15:17:51,0
2026-02-26 15:17:51,0.01
2026-02-26 15:17:51,-0.01
2026-02-26 15:17:51,0.01
2026-02-26 15:17:51,-0.01
2026-02-26 15:17:51,0.01
2026-02-26 15:17:51,-0.01
2026-02-26 15:17:51,0.01
2026-02-26 15:17:51,-0.01
2026-02-26 15:17:51,0.01
2026-02-26 15:17:51,-0.01
2026-02-26 15:17:51,0
2026-02-26 15:17:51,0
2026-02-26 15:17:51,0.01
2026-02-26 15:17:51,-0.01
2026-02-26 15:17:52,0.01
2026-02-26 15:17:52,0
2026-02-26 15:17:52,0.01
2026-02-26 15:17:52,-0.01
2026-02-26 15:17:52,0
2026-02-26 15:17:52,0
2026-02-26 15:17:52,0
2026-02-26 15:17:52,0
2026-02-26 15:17:52,0.01
2026-02-26 15:17:52,0
2026-02-26 15:17:52,0
2026-02-26 15:17:52,0
2026-02-26 15:17:52,0
2026-02-26 15:17:52,0
2026-02-26 15:17:52,0
2026-02-26 15:17:52,0.01
2026-02-26 15:17:52,0
2026-02-26 15:17:52,0
2026-02-26 15:17:52,0
2026-02-26 15:17:52,0
2026-02-26 15:17:52,0
2026-02-26 15:17:52,-0.01
2026-02-26 15:17:52,0.01
2026-02-26 15:17:52,0
2026-02-26 15:17:52,0
2026-02-26 15:17:52,-0.01
2026-02-26 15:17:52,0.01
2026-02-26 15:17:52,0
2026-02-26 15:17:52,0
2026-02-26 15:17:52,0
2026-02-26 15:17:52,0
2026-02-26 15:17:52,-0.01
2026-02-26 15:17:52,0.01
2026-02-26 15:17:52,0
2026-02-26 15:17:52,0
2026-02-26 15:17:52,0
2026-02-26 15:17:52,0
2026-02-26 15:17:52,0
2026-02-26 15:17:52,0
2026-02-26 15:17:52,0
2026-02-26 15:17:52,0
2026-02-26 15:17:52,0.01
2026-02-26 15:17:52,-0.01
2026-02-26 15:17:52,0
2026-02-26 15:17:52,0
2026-02-26 15:17:52,0
2026-02-26 15:17:52,-0.01
2026-02-26 15:17:52,0.01
2026-02-26 15:17:52,0
2026-02-26 15:17:52,0
2026-02-26 15:17:52,0
2026-02-26 15:17:52,0
2026-02-26 15:17:52,0
2026-02-26 15:17:52,0
2026-02-26 15:17:52,0
2026-02-26 15:17:52,0
2026-02-26 15:17:52,-0.01
2026-02-26 15:17:52,0.01
2026-02-26 15:17:52,0
2026-02-26 15:17:52,0
2026-02-26 15:17:52,0
2026-02-26 15:17:52,0.01
2026-02-26 15:17:52,-0.02
2026-02-26 15:17:52,0.02
2026-02-26 15:17:52,0
2026-02-26 15:17:52,-0.01
2026-02-26 15:17:52,0.01
2026-02-26 15:17:52,0
2026-02-26 15:17:52,-0.01
2026-02-26 15:17:52,0.01
2026-02-26 15:17:52,-0.01
2026-02-26 15:17:52,0.01
2026-02-26 15:17:52,-0.01
2026-02-26 15:17:52,0.01
2026-02-26 15:17:52,-0.01
2026-02-26 15:17:53,0.01
2026-02-26 15:17:53,-0.01
2026-02-26 15:17:53,0.01
2026-02-26 15:17:53,0
2026-02-26 15:17:53,0
2026-02-26 15:17:53,-0.01
2026-02-26 15:17:53,0.01
2026-02-26 15:17:53,-0.01
2026-02-26 15:17:53,0.02
2026-02-26 15:17:53,-0.01
2026-02-26 15:17:53,0.01
2026-02-26 15:17:53,0
2026-02-26 15:17:53,0
2026-02-26 15:17:53,0
2026-02-26 15:17:53,0.01
2026-02-26 15:17:53,-0.01
2026-02-26 15:17:53,0
2026-02-26 15:17:53,0
2026-02-26 15:17:53,0
2026-02-26 15:17:53,-0.01
2026-02-26 15:17:53,0.01
2026-02-26 15:17:53,-0.01
2026-02-26 15:17:53,0
2026-02-26 15:17:53,0
2026-02-26 15:17:53,0.01
2026-02-26 15:17:53,-0.01
2026-02-26 15:17:53,0.01
2026-02-26 15:17:53,-0.01
2026-02-26 15:17:53,0
2026-02-26 15:17:53,0
2026-02-26 15:17:53,0
2026-02-26 15:17:53,-0.01
2026-02-26 15:17:53,0.01
2026-02-26 15:17:53,-0.01
2026-02-26 15:17:53,0.01
2026-02-26 15:17:53,-0.01
2026-02-26 15:17:53,0.01
2026-02-26 15:17:53,-0.01
2026-02-26 15:17:53,0.01
2026-02-26 15:17:53,-0.01
2026-02-26 15:17:53,0
2026-02-26 15:17:53,-0.01
2026-02-26 15:17:53,0.01
2026-02-26 15:17:53,-0.01
2026-02-26 15:17:53,0.01
2026-02-26 15:17:53,-0.01
2026-02-26 15:17:53,0
2026-02-26 15:17:53,-0.01
2026-02-26 15:17:53,0.01
2026-02-26 15:17:53,-0.01
2026-02-26 15:17:53,0.01
2026-02-26 15:17:53,-0.01
2026-02-26 15:17:53,0.01
2026-02-26 15:17:53,-0.01
2026-02-26 15:17:53,0.01
2026-02-26 15:17:53,-0.01
2026-02-26 15:17:53,0
2026-02-26 15:17:53,0
2026-02-26 15:17:53,0
2026-02-26 15:17:53,0
2026-02-26 15:17:53,0
2026-02-26 15:17:53,0
2026-02-26 15:17:53,0
2026-02-26 15:17:53,0
2026-02-26 15:17:53,0
2026-02-26 15:17:53,0
2026-02-26 15:17:53,-0.01
2026-02-26 15:17:53,0.01
2026-02-26 15:17:53,-0.01
2026-02-26 15:17:53,0.01
2026-02-26 15:17:53,-0.01
2026-02-26 15:17:53,0.01
2026-02-26 15:17:53,-0.01
2026-02-26 15:17:53,0.01
2026-02-26 15:17:53,-0.01
2026-02-26 15:17:54,0.01
2026-02-26 15:17:54,-0.01
2026-02-26 15:17:54,0.01
2026-02-26 15:17:54,0
2026-02-26 15:17:54,0
2026-02-26 15:17:54,0
2026-02-26 15:17:54,0
2026-02-26 15:17:54,-0.01
2026-02-26 15:17:54,0.01
2026-02-26 15:17:54,-0.01
2026-02-26 15:17:54,0.01
2026-02-26 15:17:54,-0.01
2026-02-26 15:17:54,0.01
2026-02-26 15:17:54,-0.01
2026-02-26 15:17:54,0.02
2026-02-26 15:17:54,-0.02
2026-02-26 15:17:54,0.02
2026-02-26 15:17:54,-0.02
2026-02-26 15:17:54,0.01
2026-02-26 15:17:54,-0.01
2026-02-26 15:17:54,0.01
2026-02-26 15:17:54,-0.01
2026-02-26 15:17:54,0.01
2026-02-26 15:17:54,-0.01
2026-02-26 15:17:54,0.01
2026-02-26 15:17:54,-0.01
2026-02-26 15:17:54,0.01
2026-02-26 15:17:54,-0.01
2026-02-26 15:17:54,0.02
2026-02-26 15:17:54,-0.02
2026-02-26 15:17:54,0.01
2026-02-26 15:17:54,-0.01
2026-02-26 15:17:54,0.01
2026-02-26 15:17:54,-0.01
2026-02-26 15:17:54,0.01
2026-02-26 15:17:54,-0.01
2026-02-26 15:17:54,0
2026-02-26 15:17:54,0
2026-02-26 15:17:54,0
2026-02-26 15:17:54,-0.01
2026-02-26 15:17:54,0.01
2026-02-26 15:17:54,0
2026-02-26 15:17:54,0
2026-02-26 15:17:54,0
2026-02-26 15:17:54,0.01
2026-02-26 15:17:54,-0.01
2026-02-26 15:17:54,0
2026-02-26 15:17:54,0
2026-02-26 15:17:54,0.01
2026-02-26 15:17:54,-0.01
2026-02-26 15:17:54,0.01
2026-02-26 15:17:54,0
2026-02-26 15:17:54,0
2026-02-26 15:17:54,-0.01
2026-02-26 15:17:54,0.01
2026-02-26 15:17:54,-0.01
2026-02-26 15:17:54,0
2026-02-26 15:17:54,0
2026-02-26 15:17:54,0
2026-02-26 15:17:54,0
2026-02-26 15:17:54,0
2026-02-26 15:17:54,0
2026-02-26 15:17:54,0
2026-02-26 15:17:54,0
2026-02-26 15:17:54,0
2026-02-26 15:17:54,0
2026-02-26 15:17:54,0
2026-02-26 15:17:54,0
2026-02-26 15:17:54,0
2026-02-26 15:17:54,0
2026-02-26 15:17:54,0
2026-02-26 15:17:54,0.01
2026-02-26 15:17:54,0
2026-02-26 15:17:54,0
2026-02-26 15:17:54,0
2026-02-26 15:17:55,0.01
2026-02-26 15:17:55,-0.01
2026-02-26 15:17:55,0.01
2026-02-26 15:17:55,0
2026-02-26 15:17:55,0
2026-02-26 15:17:55,0.01
2026-02-26 15:17:55,0
2026-02-26 15:17:55,0
2026-02-26 15:17:55,0.01
2026-02-26 15:17:55,-0.01
2026-02-26 15:17:55,0.01
2026-02-26 15:17:55,0
2026-02-26 15:17:55,0
2026-02-26 15:17:55,-0.01
2026-02-26 15:17:55,0
2026-02-26 15:17:55,0.01
2026-02-26 15:17:55,-0.01
2026-02-26 15:17:55,0
2026-02-26 15:17:55,0.01
2026-02-26 15:17:55,-0.01
2026-02-26 15:17:55,0.02
2026-02-26 15:17:55,-0.02
2026-02-26 15:17:55,0.01
2026-02-26 15:17:55,-0.01
2026-02-26 15:17:55,0.01
2026-02-26 15:17:55,-0.01
2026-02-26 15:17:55,0.01
2026-02-26 15:17:55,-0.01
2026-02-26 15:17:55,0.01
2026-02-26 15:17:55,-0.01
2026-02-26 15:17:55,0
2026-02-26 15:17:55,-0.01
2026-02-26 15:17:55,0.01
2026-02-26 15:17:55,-0.01
2026-02-26 15:17:55,0.01
2026-02-26 15:17:55,-0.01
2026-02-26 15:17:55,0.01
2026-02-26 15:17:55,-0.01
2026-02-26 15:17:55,0.01
2026-02-26 15:17:55,-0.01
2026-02-26 15:17:55,0.01
2026-02-26 15:17:55,-0.01
2026-02-26 15:17:55,0
2026-02-26 15:17:55,0
2026-02-26 15:17:55,0.01
2026-02-26 15:17:55,-0.01
2026-02-26 15:17:55,0.01
2026-02-26 15:17:55,-0.01
2026-02-26 15:17:55,0.01
2026-02-26 15:17:55,-0.01
2026-02-26 15:17:55,0
2026-02-26 15:17:55,0
2026-02-26 15:17:55,0.01
2026-02-26 15:17:55,-0.01
2026-02-26 15:17:55,0
2026-02-26 15:17:55,-0.01
2026-02-26 15:17:55,0.01
2026-02-26 15:17:55,-0.01
2026-02-26 15:17:55,0
2026-02-26 15:17:55,-0.01
2026-02-26 15:17:55,0.01
2026-02-26 15:17:55,-0.01
2026-02-26 15:17:55,0
2026-02-26 15:17:55,0
2026-02-26 15:17:55,0
2026-02-26 15:17:55,0
2026-02-26 15:17:55,0.01
2026-02-26 15:17:55,-0.01
2026-02-26 15:17:55,0
2026-02-26 15:17:55,0
2026-02-26 15:17:55,0
2026-02-26 15:17:55,-0.01
2026-02-26 15:17:55,0.01
2026-02-26 15:17:55,-0.01
2026-02-26 15:17:55,0
2026-02-26 15:17:56,0
2026-02-26 15:17:56,0
2026-02-26 15:17:56,0
2026-02-26 15:17:56,0
2026-02-26 15:17:56,0
2026-02-26 15:17:56,0
2026-02-26 15:17:56,0
2026-02-26 15:17:56,0
2026-02-26 15:17:56,0
2026-02-26 15:17:56,0
2026-02-26 15:17:56,0
2026-02-26 15:17:56,-0.01
2026-02-26 15:17:56,0.01
2026-02-26 15:17:56,0
2026-02-26 15:17:56,0
2026-02-26 15:17:56,0
2026-02-26 15:17:56,0.01
2026-02-26 15:17:56,-0.01
2026-02-26 15:17:56,0.01
2026-02-26 15:17:56,-0.01
2026-02-26 15:17:56,0.01
2026-02-26 15:17:56,-0.01
2026-02-26 15:17:56,0.02
2026-02-26 15:17:56,-0.01
2026-02-26 15:17:56,0.01
2026-02-26 15:17:56,0
2026-02-26 15:17:56,0.01
2026-02-26 15:17:56,-0.01
2026-02-26 15:17:56,0.01
2026-02-26 15:17:56,-0.01
2026-02-26 15:17:56,0.01
2026-02-26 15:17:56,-0.01
2026-02-26 15:17:56,0.01
2026-02-26 15:17:56,-0.01
2026-02-26 15:17:56,0
2026-02-26 15:17:56,0
2026-02-26 15:17:56,0
2026-02-26 15:17:56,-0.01
2026-02-26 15:17:56,0.02
2026-02-26 15:17:56,-0.02
2026-02-26 15:17:56,0.01
2026-02-26 15:17:56,-0.01
2026-02-26 15:17:56,0.01
2026-02-26 15:17:56,-0.02
2026-02-26 15:17:56,0.02
2026-02-26 15:17:56,-0.01
2026-02-26 15:17:56,0.01
2026-02-26 15:17:56,-0.01
2026-02-26 15:17:56,0.01
2026-02-26 15:17:56,-0.01
2026-02-26 15:17:56,0.01
2026-02-26 15:17:56,-0.02
2026-02-26 15:17:56,0.01
2026-02-26 15:17:56,-0.01
2026-02-26 15:17:56,0.02
2026-02-26 15:17:56,-0.02
2026-02-26 15:17:56,0.02
2026-02-26 15:17:56,-0.02
2026-02-26 15:17:56,0.01
2026-02-26 15:17:56,-0.01
2026-02-26 15:17:56,0.01
2026-02-26 15:17:56,-0.01
2026-02-26 15:17:56,0.01
2026-02-26 15:17:56,-0.01
2026-02-26 15:17:56,0.01
2026-02-26 15:17:56,-0.01
2026-02-26 15:17:56,0.01
2026-02-26 15:17:56,-0.01
2026-02-26 15:17:56,0
2026-02-26 15:17:56,0
2026-02-26 15:17:56,0
2026-02-26 15:17:56,-0.01
2026-02-26 15:17:56,0.01
2026-02-26 15:17:56,-0.01
2026-02-26 15:17:56,0.01
2026-02-26 15:17:57,-0.01
2026-02-26 15:17:57,0
2026-02-26 15:17:57,0
2026-02-26 15:17:57,0.01
2026-02-26 15:17:57,0
2026-02-26 15:17:57,0
2026-02-26 15:17:57,0
2026-02-26 15:17:57,0.01
2026-02-26 15:17:57,-0.01
2026-02-26 15:17:57,0
2026-02-26 15:17:57,0
2026-02-26 15:17:57,0
2026-02-26 15:17:57,-0.01
2026-02-26 15:17:57,0.01
2026-02-26 15:17:57,-0.01
2026-02-26 15:17:57,0
2026-02-26 15:17:57,0.01
2026-02-26 15:17:57,0
2026-02-26 15:17:57,-0.01
2026-02-26 15:17:57,0.01
2026-02-26 15:17:57,0
2026-02-26 15:17:57,0
2026-02-26 15:17:57,-0.01
2026-02-26 15:17:57,0
2026-02-26 15:17:57,0.01
2026-02-26 15:17:57,-0.01
2026-02-26 15:17:57,0
2026-02-26 15:17:57,0
2026-02-26 15:17:57,-0.01
2026-02-26 15:17:57,0.01
2026-02-26 15:17:57,0
2026-02-26 15:17:57,0
2026-02-26 15:17:57,0
2026-02-26 15:17:57,0
2026-02-26 15:17:57,-0.01
2026-02-26 15:17:57,0
2026-02-26 15:17:57,0
2026-02-26 15:17:57,0
2026-02-26 15:17:57,0
2026-02-26 15:17:57,0
2026-02-26 15:17:57,0
2026-02-26 15:17:57,0
2026-02-26 15:17:57,0
2026-02-26 15:17:57,0
2026-02-26 15:17:57,0
2026-02-26 15:17:57,-0.01
2026-02-26 15:17:57,0.01
2026-02-26 15:17:57,0
2026-02-26 15:17:57,-0.01
2026-02-26 15:17:57,0.01
2026-02-26 15:17:57,0
2026-02-26 15:17:57,-0.01
2026-02-26 15:17:57,0.01
2026-02-26 15:17:57,0
2026-02-26 15:17:57,0
2026-02-26 15:17:57,0
2026-02-26 15:17:57,0
2026-02-26 15:17:57,-0.01
2026-02-26 15:17:57,0.01
2026-02-26 15:17:57,0
2026-02-26 15:17:57,-0.01
2026-02-26 15:17:57,0.01
2026-02-26 15:17:57,0
2026-02-26 15:17:57,0
2026-02-26 15:17:57,0.01
2026-02-26 15:17:57,-0.01
2026-02-26 15:17:57,0
2026-02-26 15:17:57,0
2026-02-26 15:17:57,0
2026-02-26 15:17:57,-0.01
2026-02-26 15:17:57,0.01
2026-02-26 15:17:57,-0.01
2026-02-26 15:17:57,0.01
2026-02-26 15:17:57,0
2026-02-26 15:17:57,0
2026-02-26 15:17:58,0
2026-02-26 15:17:58,0
2026-02-26 15:17:58,-0.01
2026-02-26 15:17:58,0
2026-02-26 15:17:58,0
2026-02-26 15:17:58,0
2026-02-26 15:17:58,0
2026-02-26 15:17:58,0
2026-02-26 15:17:58,0
2026-02-26 15:17:58,-0.01
2026-02-26 15:17:58,0.02
2026-02-26 15:17:58,-0.01
2026-02-26 15:17:58,-0.01
2026-02-26 15:17:58,0.02
2026-02-26 15:17:58,0
2026-02-26 15:17:58,0
2026-02-26 15:17:58,-0.03
2026-02-26 15:17:58,0.03
2026-02-26 15:17:58,0.03
2026-02-26 15:17:58,-0.08
2026-02-26 15:17:58,0.05
2026-02-26 15:17:58,0
2026-02-26 15:17:58,-0.03
2026-02-26 15:17:58,0.04
2026-02-26 15:17:58,-0.04
2026-02-26 15:17:58,0.01
2026-02-26 15:17:58,0
2026-02-26 15:17:58,0.01
2026-02-26 15:17:58,-0.02
2026-02-26 15:17:58,0.01
2026-02-26 15:17:58,0.01
2026-02-26 15:17:58,-0.01
2026-02-26 15:17:58,0
2026-02-26 15:17:58,0.01
2026-02-26 15:17:58,-0.01
2026-02-26 15:17:58,0
2026-02-26 15:17:58,-0.01
2026-02-26 15:17:58,0.01
2026-02-26 15:17:58,0.01
2026-02-26 15:17:58,-0.01
2026-02-26 15:17:58,0
2026-02-26 15:17:58,0
2026-02-26 15:17:58,0
2026-02-26 15:17:58,0
2026-02-26 15:17:58,0
2026-02-26 15:17:58,-0.01
2026-02-26 15:17:58,0
2026-02-26 15:17:58,0
2026-02-26 15:17:58,0
2026-02-26 15:17:58,0
2026-02-26 15:17:58,0
2026-02-26 15:17:58,0
2026-02-26 15:17:58,0
2026-02-26 15:17:58,-0.01
2026-02-26 15:17:58,0.01
2026-02-26 15:17:58,-0.01
2026-02-26 15:17:58,0.01
2026-02-26 15:17:58,-0.01
2026-02-26 15:17:58,0.01
2026-02-26 15:17:58,-0.01
2026-02-26 15:17:58,0.01
2026-02-26 15:17:58,-0.01
2026-02-26 15:17:58,0.01
2026-02-26 15:17:58,0
2026-02-26 15:17:58,0.01
2026-02-26 15:17:58,-0.01
2026-02-26 15:17:58,0.02
2026-02-26 15:17:58,-0.01
2026-02-26 15:17:58,0.01
2026-02-26 15:17:58,-0.02
2026-02-26 15:17:58,0.01
2026-02-26 15:17:58,0
2026-02-26 15:17:58,0.01
2026-02-26 15:17:58,-0.02
2026-02-26 15:17:58,0.02
2026-02-26 15:17:59,0
2026-02-26 15:17:59,0
2026-02-26 15:17:59,-0.01
2026-02-26 15:17:59,0.03
2026-02-26 15:17:59,-0.03
2026-02-26 15:17:59,0
2026-02-26 15:17:59,0.01
2026-02-26 15:17:59,0.01
2026-02-26 15:17:59,-0.02
2026-02-26 15:17:59,0.01
2026-02-26 15:17:59,-0.01
2026-02-26 15:17:59,0.01
2026-02-26 15:17:59,0
2026-02-26 15:17:59,0
2026-02-26 15:17:59,0
2026-02-26 15:17:59,0.01
2026-02-26 15:17:59,-0.01
2026-02-26 15:17:59,0.01
2026-02-26 15:17:59,-0.01
2026-02-26 15:17:59,0.02
2026-02-26 15:17:59,-0.02
2026-02-26 15:17:59,0.01
2026-02-26 15:17:59,-0.01
2026-02-26 15:17:59,0.01
2026-02-26 15:17:59,-0.01
2026-02-26 15:17:59,0.01
2026-02-26 15:17:59,-0.01
2026-02-26 15:17:59,0.01
2026-02-26 15:17:59,-0.01
2026-02-26 15:17:59,0.01
2026-02-26 15:17:59,-0.01
2026-02-26 15:17:59,0.01
2026-02-26 15:17:59,-0.02
2026-02-26 15:17:59,0.01
2026-02-26 15:17:59,0
2026-02-26 15:17:59,-0.01
2026-02-26 15:17:59,0
2026-02-26 15:17:59,0.01
2026-02-26 15:17:59,-0.02
2026-02-26 15:17:59,0.01
2026-02-26 15:17:59,0
2026-02-26 15:17:59,0
2026-02-26 15:17:59,-0.01
2026-02-26 15:17:59,0.01
2026-02-26 15:17:59,0
2026-02-26 15:17:59,0
2026-02-26 15:17:59,0
2026-02-26 15:17:59,0.01
2026-02-26 15:17:59,-0.01
2026-02-26 15:17:59,0.01
2026-02-26 15:17:59,-0.01
2026-02-26 15:17:59,0
2026-02-26 15:17:59,0
2026-02-26 15:17:59,0.01
2026-02-26 15:17:59,-0.01
2026-02-26 15:17:59,0
2026-02-26 15:17:59,0.01
2026-02-26 15:17:59,0
2026-02-26 15:17:59,0
2026-02-26 15:17:59,0.01
2026-02-26 15:17:59,-0.01
2026-02-26 15:17:59,0.01
2026-02-26 15:17:59,0
2026-02-26 15:17:59,0
2026-02-26 15:17:59,0
2026-02-26 15:17:59,0.01
2026-02-26 15:17:59,-0.01
2026-02-26 15:17:59,0
2026-02-26 15:17:59,0
2026-02-26 15:17:59,0
2026-02-26 15:17:59,0
2026-02-26 15:17:59,0
2026-02-26 15:17:59,0.01
2026-02-26 15:17:59,-0.01
2026-02-26 15:17:59,0.02
2026-02-26 15:18:00,-0.02
2026-02-26 15:18:00,-0.02
2026-02-26 15:18:00,0.06
2026-02-26 15:18:00,-0.04
2026-02-26 15:18:00,0.01
2026-02-26 15:18:00,0.02
2026-02-26 15:18:00,-0.02
2026-02-26 15:18:00,0.01
2026-02-26 15:18:00,0
2026-02-26 15:18:00,0.01
2026-02-26 15:18:00,-0.01
2026-02-26 15:18:00,0.01
2026-02-26 15:18:00,-0.01
2026-02-26 15:18:00,0.01
2026-02-26 15:18:00,-0.01
2026-02-26 15:18:00,0.01
2026-02-26 15:18:00,-0.01
2026-02-26 15:18:00,0.01
2026-02-26 15:18:00,-0.01
2026-02-26 15:18:00,0.01
2026-02-26 15:18:00,-0.01
2026-02-26 15:18:00,0.01
2026-02-26 15:18:00,0
2026-02-26 15:18:00,0
2026-02-26 15:18:00,0
2026-02-26 15:18:00,0
2026-02-26 15:18:00,0
2026-02-26 15:18:00,0
2026-02-26 15:18:00,0
2026-02-26 15:18:00,0
2026-02-26 15:18:00,0
2026-02-26 15:18:00,0
2026-02-26 15:18:00,0
2026-02-26 15:18:00,0
2026-02-26 15:18:00,0
2026-02-26 15:18:00,0
2026-02-26 15:18:00,0
2026-02-26 15:18:00,0
2026-02-26 15:18:00,0
2026-02-26 15:18:00,-0.02
2026-02-26 15:18:00,0.04
2026-02-26 15:18:00,0.01
2026-02-26 15:18:00,-0.06
2026-02-26 15:18:00,0.03
2026-02-26 15:18:00,0
2026-02-26 15:18:00,0
2026-02-26 15:18:00,0
2026-02-26 15:18:00,0
2026-02-26 15:18:00,0
2026-02-26 15:18:00,0
2026-02-26 15:18:00,0
2026-02-26 15:18:00,0.02
2026-02-26 15:18:00,-0.03
2026-02-26 15:18:00,0.01
2026-02-26 15:18:00,0.02
2026-02-26 15:18:00,-0.02
2026-02-26 15:18:00,0
2026-02-26 15:18:00,0.01
2026-02-26 15:18:00,0.01
2026-02-26 15:18:00,-0.01
2026-02-26 15:18:00,0
2026-02-26 15:18:00,0.01
2026-02-26 15:18:00,0
2026-02-26 15:18:00,-0.01
2026-02-26 15:18:00,0
2026-02-26 15:18:00,0
2026-02-26 15:18:00,0.01
2026-02-26 15:18:00,-0.01
2026-02-26 15:18:00,0
2026-02-26 15:18:00,0.01
2026-02-26 15:18:00,0
2026-02-26 15:18:00,0
2026-02-26 15:18:00,0.01
2026-02-26 15:18:00,-0.01
2026-02-26 15:18:00,0
2026-02-26 15:18:01,0.01
2026-02-26 15:18:01,-0.01
2026-02-26 15:18:01,0
2026-02-26 15:18:01,0.01
2026-02-26 15:18:01,-0.01
2026-02-26 15:18:01,0.01
2026-02-26 15:18:01,0
2026-02-26 15:18:01,0
2026-02-26 15:18:01,-0.01
2026-02-26 15:18:01,0
2026-02-26 15:18:01,0.01
2026-02-26 15:18:01,-0.02
2026-02-26 15:18:01,0.01
2026-02-26 15:18:01,0.01
2026-02-26 15:18:01,-0.01
2026-02-26 15:18:01,0
2026-02-26 15:18:01,0.01
2026-02-26 15:18:01,-0.01
2026-02-26 15:18:01,0.01
2026-02-26 15:18:01,-0.01
2026-02-26 15:18:01,-0.02
2026-02-26 15:18:01,0.05
2026-02-26 15:18:01,-0.11
2026-02-26 15:18:01,0.15
2026-02-26 15:18:01,-0.08
2026-02-26 15:18:01,-0.04
2026-02-26 15:18:01,0.11
2026-02-26 15:18:01,-0.09
2026-02-26 15:18:01,0.04
2026-02-26 15:18:01,-0.05
2026-02-26 15:18:01,0.06
2026-02-26 15:18:01,-0.06
2026-02-26 15:18:01,0.05
2026-02-26 15:18:01,-0.04
2026-02-26 15:18:01,0.05
2026-02-26 15:18:01,-0.04
2026-02-26 15:18:01,0.04
2026-02-26 15:18:01,-0.04
2026-02-26 15:18:01,0.04
2026-02-26 15:18:01,-0.03
2026-02-26 15:18:01,0.03
2026-02-26 15:18:01,-0.03
2026-02-26 15:18:01,0.03
2026-02-26 15:18:01,-0.03
2026-02-26 15:18:01,0.03
2026-02-26 15:18:01,0.01
2026-02-26 15:18:01,-0.04
2026-02-26 15:18:01,0.03
2026-02-26 15:18:01,-0.02
2026-02-26 15:18:01,0.02
2026-02-26 15:18:01,-0.02
2026-02-26 15:18:01,0.02
2026-02-26 15:18:01,0
2026-02-26 15:18:01,-0.04
2026-02-26 15:18:01,0.07
2026-02-26 15:18:01,-0.04
2026-02-26 15:18:01,0
2026-02-26 15:18:01,-0.01
2026-02-26 15:18:01,0.03
2026-02-26 15:18:01,-0.02
2026-02-26 15:18:01,0.02
2026-02-26 15:18:01,-0.02
2026-02-26 15:18:01,0.01
2026-02-26 15:18:01,-0.02
2026-02-26 15:18:01,0.04
2026-02-26 15:18:01,-0.03
2026-02-26 15:18:01,0.01
2026-02-26 15:18:01,-0.01
2026-02-26 15:18:01,0.02
2026-02-26 15:18:01,-0.01
2026-02-26 15:18:01,0.01
2026-02-26 15:18:01,-0.01
2026-02-26 15:18:01,0.01
2026-02-26 15:18:01,-0.01
2026-02-26 15:18:01,0.01
2026-02-26 15:18:02,-0.01
2026-02-26 15:18:02,0.01
2026-02-26 15:18:02,0
2026-02-26 15:18:02,-0.01
2026-02-26 15:18:02,0.01
2026-02-26 15:18:02,-0.01
2026-02-26 15:18:02,0.01
2026-02-26 15:18:02,-0.02
2026-02-26 15:18:02,0.02
2026-02-26 15:18:02,-0.01
2026-02-26 15:18:02,0
2026-02-26 15:18:02,0
2026-02-26 15:18:02,0.01
2026-02-26 15:18:02,-0.01
2026-02-26 15:18:02,0.01
2026-02-26 15:18:02,-0.01
2026-02-26 15:18:02,0.01
2026-02-26 15:18:02,-0.01
2026-02-26 15:18:02,0.02
2026-02-26 15:18:02,-0.02
2026-02-26 15:18:02,0.01
2026-02-26 15:18:02,-0.02
2026-02-26 15:18:02,0.03
2026-02-26 15:18:02,-0.04
2026-02-26 15:18:02,0.03
2026-02-26 15:18:02,-0.03
2026-02-26 15:18:02,0.02
2026-02-26 15:18:02,-0.02
2026-02-26 15:18:02,0.02
2026-02-26 15:18:02,-0.02
2026-02-26 15:18:02,0.02
2026-02-26 15:18:02,-0.02
2026-02-26 15:18:02,0.02
2026-02-26 15:18:02,-0.02
2026-02-26 15:18:02,0.01
2026-02-26 15:18:02,-0.02
2026-02-26 15:18:02,0.02
2026-02-26 15:18:02,-0.02
2026-02-26 15:18:02,0.02
2026-02-26 15:18:02,-0.02
2026-02-26 15:18:02,0.01
2026-02-26 15:18:02,-0.02
2026-02-26 15:18:02,0.02
2026-02-26 15:18:02,-0.02
2026-02-26 15:18:02,0.01
2026-02-26 15:18:02,-0.01
2026-02-26 15:18:02,0.01
2026-02-26 15:18:02,0
2026-02-26 15:18:02,0
2026-02-26 15:18:02,-0.01
2026-02-26 15:18:02,0.01
2026-02-26 15:18:02,-0.01
2026-02-26 15:18:02,0.01
2026-02-26 15:18:02,-0.01
2026-02-26 15:18:02,0
2026-02-26 15:18:02,0
2026-02-26 15:18:02,0
2026-02-26 15:18:02,0
2026-02-26 15:18:02,0
2026-02-26 15:18:02,0
2026-02-26 15:18:02,0
2026-02-26 15:18:02,-0.01
2026-02-26 15:18:02,0.01
2026-02-26 15:18:02,0
2026-02-26 15:18:02,-0.01
2026-02-26 15:18:02,0.01
2026-02-26 15:18:02,0
2026-02-26 15:18:02,0
2026-02-26 15:18:02,0
2026-02-26 15:18:02,0.01
2026-02-26 15:18:02,-0.01
2026-02-26 15:18:02,0.01
2026-02-26 15:18:02,-0.01
2026-02-26 15:18:02,0
2026-02-26 15:18:02,0.01
2026-02-26 15:18:03,-0.01
2026-02-26 15:18:03,0
2026-02-26 15:18:03,0.01
2026-02-26 15:18:03,0
2026-02-26 15:18:03,-0.01
2026-02-26 15:18:03,0
2026-02-26 15:18:03,0.01
2026-02-26 15:18:03,-0.01
2026-02-26 15:18:03,0.01
2026-02-26 15:18:03,-0.01
2026-02-26 15:18:03,0
2026-02-26 15:18:03,0
2026-02-26 15:18:03,0.01
2026-02-26 15:18:03,0
2026-02-26 15:18:03,-0.01
2026-02-26 15:18:03,0.01
2026-02-26 15:18:03,0
2026-02-26 15:18:03,-0.01
2026-02-26 15:18:03,0.02
2026-02-26 15:18:03,-0.02
2026-02-26 15:18:03,0.01
2026-02-26 15:18:03,0
2026-02-26 15:18:03,0
2026-02-26 15:18:03,0.01
2026-02-26 15:18:03,0
2026-02-26 15:18:03,0
2026-02-26 15:18:03,-0.01
2026-02-26 15:18:03,0.01
2026-02-26 15:18:03,0
2026-02-26 15:18:03,0
2026-02-26 15:18:03,0
2026-02-26 15:18:03,0
2026-02-26 15:18:03,0
2026-02-26 15:18:03,0
2026-02-26 15:18:03,0
2026-02-26 15:18:03,-0.01
2026-02-26 15:18:03,0.01
2026-02-26 15:18:03,0
2026-02-26 15:18:03,-0.02
2026-02-26 15:18:03,0.02
2026-02-26 15:18:03,-0.01
2026-02-26 15:18:03,0.01
2026-02-26 15:18:03,-0.01
2026-02-26 15:18:03,0
2026-02-26 15:18:03,-0.01
2026-02-26 15:18:03,0.01
2026-02-26 15:18:03,0
2026-02-26 15:18:03,-0.01
2026-02-26 15:18:03,0.01
2026-02-26 15:18:03,0
2026-02-26 15:18:03,-0.01
2026-02-26 15:18:03,0.01
2026-02-26 15:18:03,0
2026-02-26 15:18:03,0
2026-02-26 15:18:03,0
2026-02-26 15:18:03,0
2026-02-26 15:18:03,0
2026-02-26 15:18:03,0
2026-02-26 15:18:03,0
2026-02-26 15:18:03,0
2026-02-26 15:18:03,0
2026-02-26 15:18:03,0
2026-02-26 15:18:03,-0.01
2026-02-26 15:18:03,0
2026-02-26 15:18:03,0.01
2026-02-26 15:18:03,0
2026-02-26 15:18:03,-0.01
2026-02-26 15:18:03,0.01
2026-02-26 15:18:03,0
2026-02-26 15:18:03,0
2026-02-26 15:18:03,-0.01
2026-02-26 15:18:03,0.01
2026-02-26 15:18:03,0
2026-02-26 15:18:03,0
2026-02-26 15:18:03,0
2026-02-26 15:18:04,0
2026-02-26 15:18:04,-0.01
2026-02-26 15:18:04,0.01
2026-02-26 15:18:04,-0.01
2026-02-26 15:18:04,0.01
2026-02-26 15:18:04,-0.01
2026-02-26 15:18:04,0.01
2026-02-26 15:18:04,-0.01
2026-02-26 15:18:04,0.01
2026-02-26 15:18:04,0
2026-02-26 15:18:04,-0.01
2026-02-26 15:18:04,0
2026-02-26 15:18:04,0
2026-02-26 15:18:04,0
2026-02-26 15:18:04,0
2026-02-26 15:18:04,-0.01
2026-02-26 15:18:04,0.01
2026-02-26 15:18:04,0
2026-02-26 15:18:04,0
2026-02-26 15:18:04,0
2026-02-26 15:18:04,0
2026-02-26 15:18:04,0
2026-02-26 15:18:04,0.01
2026-02-26 15:18:04,-0.01
2026-02-26 15:18:04,0
2026-02-26 15:18:04,-0.01
2026-02-26 15:18:04,0.01
2026-02-26 15:18:04,-0.01
2026-02-26 15:18:04,0.01
2026-02-26 15:18:04,0
2026-02-26 15:18:04,0
2026-02-26 15:18:04,0
2026-02-26 15:18:04,0
2026-02-26 15:18:04,0.01
2026-02-26 15:18:04,-0.01
2026-02-26 15:18:04,0
2026-02-26 15:18:04,0
2026-02-26 15:18:04,0
2026-02-26 15:18:04,0
2026-02-26 15:18:04,0.01
2026-02-26 15:18:04,0
2026-02-26 15:18:04,0
2026-02-26 15:18:04,-0.01
2026-02-26 15:18:04,0.02
2026-02-26 15:18:04,-0.02
2026-02-26 15:18:04,0.02
2026-02-26 15:18:04,0
2026-02-26 15:18:04,0
2026-02-26 15:18:04,0
2026-02-26 15:18:04,0
2026-02-26 15:18:04,0
2026-02-26 15:18:04,0
2026-02-26 15:18:04,0
2026-02-26 15:18:04,0
2026-02-26 15:18:04,-0.01
2026-02-26 15:18:04,0.01
2026-02-26 15:18:04,0
2026-02-26 15:18:04,-0.01
2026-02-26 15:18:04,0.01
2026-02-26 15:18:04,-0.01
2026-02-26 15:18:04,0
2026-02-26 15:18:04,0
2026-02-26 15:18:04,-0.01
2026-02-26 15:18:04,0.01
2026-02-26 15:18:04,-0.01
2026-02-26 15:18:04,0.01
2026-02-26 15:18:04,0
2026-02-26 15:18:04,0
2026-02-26 15:18:04,0
2026-02-26 15:18:04,0.01
2026-02-26 15:18:04,-0.01
2026-02-26 15:18:04,0
2026-02-26 15:18:04,0
2026-02-26 15:18:04,0.01
2026-02-26 15:18:04,-0.01
2026-02-26 15:18:05,0.01
2026-02-26 15:18:05,0
2026-02-26 15:18:05,0
2026-02-26 15:18:05,0
2026-02-26 15:18:05,0
2026-02-26 15:18:05,-0.01
2026-02-26 15:18:05,0.01
2026-02-26 15:18:05,0
2026-02-26 15:18:05,-0.01
2026-02-26 15:18:05,0.02
2026-02-26 15:18:05,-0.01
2026-02-26 15:18:05,0
2026-02-26 15:18:05,0.01
2026-02-26 15:18:05,-0.01
2026-02-26 15:18:05,0.01
2026-02-26 15:18:05,-0.01
2026-02-26 15:18:05,0.01
2026-02-26 15:18:05,0
2026-02-26 15:18:05,-0.01
2026-02-26 15:18:05,0.01
2026-02-26 15:18:05,-0.01
2026-02-26 15:18:05,0.01
2026-02-26 15:18:05,-0.01
2026-02-26 15:18:05,0
2026-02-26 15:18:05,0.01
2026-02-26 15:18:05,-0.01
2026-02-26 15:18:05,0.02
2026-02-26 15:18:05,-0.01
2026-02-26 15:18:05,0
2026-02-26 15:18:05,0
2026-02-26 15:18:05,0
2026-02-26 15:18:05,0
2026-02-26 15:18:05,0
2026-02-26 15:18:05,0
2026-02-26 15:18:05,0
2026-02-26 15:18:05,-0.01
2026-02-26 15:18:05,0.01
2026-02-26 15:18:05,-0.01
2026-02-26 15:18:05,0.01
2026-02-26 15:18:05,-0.01
2026-02-26 15:18:05,0
2026-02-26 15:18:05,0
2026-02-26 15:18:05,0
2026-02-26 15:18:05,0
2026-02-26 15:18:05,0
2026-02-26 15:18:05,0
2026-02-26 15:18:05,0
2026-02-26 15:18:05,0.01
2026-02-26 15:18:05,-0.01
2026-02-26 15:18:05,0.01
2026-02-26 15:18:05,-0.01
2026-02-26 15:18:05,0.01
2026-02-26 15:18:05,0
2026-02-26 15:18:05,0
2026-02-26 15:18:05,0
2026-02-26 15:18:05,0
2026-02-26 15:18:05,0