Timestamp,ECG_Value
2026-02-26 15:13:36,0.05
2026-02-26 15:13:36,-0.14
2026-02-26 15:13:36,0.11
2026-02-26 15:13:36,0.05
2026-02-26 15:13:36,-0.1
2026-02-26 15:13:36,0.02
2026-02-26 15:13:36,0.02
2026-02-26 15:13:36,0.02
2026-02-26 15:13:36,-0.04
2026-02-26 15:13:36,0.02
2026-02-26 15:13:36,-0.01
2026-02-26 15:13:36,0.02
2026-02-26 15:13:36,-0.03
2026-02-26 15:13:36,0.02
2026-02-26 15:13:36,-0.01
2026-02-26 15:13:36,0.01
2026-02-26 15:13:36,-0.02
2026-02-26 15:13:36,0.02
2026-02-26 15:13:36,-0.01
2026-02-26 15:13:36,0.01
2026-02-26 15:13:36,-0.01
2026-02-26 15:13:36,0.01
2026-02-26 15:13:36,-0.01
2026-02-26 15:13:36,0.02
2026-02-26 15:13:36,-0.01
2026-02-26 15:13:36,-0.01
2026-02-26 15:13:36,0
2026-02-26 15:13:36,0
2026-02-26 15:13:36,0.01
2026-02-26 15:13:36,-0.01
2026-02-26 15:13:36,0.01
2026-02-26 15:13:36,0
2026-02-26 15:13:36,0
2026-02-26 15:13:36,0
2026-02-26 15:13:36,-0.01
2026-02-26 15:13:36,0.01
2026-02-26 15:13:36,-0.01
2026-02-26 15:13:36,0.01
2026-02-26 15:13:36,-0.01
2026-02-26 15:13:36,0
2026-02-26 15:13:36,0.01
2026-02-26 15:13:36,-0.01
2026-02-26 15:13:36,0.01
2026-02-26 15:13:36,0
2026-02-26 15:13:36,0
2026-02-26 15:13:36,0
2026-02-26 15:13:36,0.01
2026-02-26 15:13:36,-0.01
2026-02-26 15:13:36,0
2026-02-26 15:13:36,-0.01
2026-02-26 15:13:36,0
2026-02-26 15:13:36,0
2026-02-26 15:13:36,-0.01
2026-02-26 15:13:36,0
2026-02-26 15:13:36,0.01
2026-02-26 15:13:36,-0.01
2026-02-26 15:13:36,0
2026-02-26 15:13:36,0.01
2026-02-26 15:13:37,0
2026-02-26 15:13:37,0
2026-02-26 15:13:37,-0.01
2026-02-26 15:13:37,0.01
2026-02-26 15:13:37,-0.01
2026-02-26 15:13:37,0
2026-02-26 15:13:37,0
2026-02-26 15:13:37,0
2026-02-26 15:13:37,-0.01
2026-02-26 15:13:37,0.01
2026-02-26 15:13:37,-0.01
2026-02-26 15:13:37,0.01
2026-02-26 15:13:37,-0.01
2026-02-26 15:13:37,0.01
2026-02-26 15:13:37,-0.01
2026-02-26 15:13:37,0
2026-02-26 15:13:37,0.01
2026-02-26 15:13:37,0
2026-02-26 15:13:37,-0.01
2026-02-26 15:13:37,0.02
2026-02-26 15:13:37,-0.02
2026-02-26 15:13:37,0.01
2026-02-26 15:13:37,-0.01
2026-02-26 15:13:37,0
2026-02-26 15:13:37,0
2026-02-26 15:13:37,0
2026-02-26 15:13:37,0
2026-02-26 15:13:37,-0.01
2026-02-26 15:13:37,0.01
2026-02-26 15:13:37,-0.01
2026-02-26 15:13:37,0.01
2026-02-26 15:13:37,0
2026-02-26 15:13:37,0
2026-02-26 15:13:37,0.01
2026-02-26 15:13:37,-0.01
2026-02-26 15:13:37,0.01
2026-02-26 15:13:37,-0.01
2026-02-26 15:13:37,0.01
2026-02-26 15:13:37,-0.01
2026-02-26 15:13:37,0
2026-02-26 15:13:37,0.01
2026-02-26 15:13:37,0
2026-02-26 15:13:37,0
2026-02-26 15:13:37,0.01
2026-02-26 15:13:37,0
2026-02-26 15:13:37,-0.01
2026-02-26 15:13:37,0.01
2026-02-26 15:13:37,0
2026-02-26 15:13:37,0
2026-02-26 15:13:37,0.01
2026-02-26 15:13:37,-0.01
2026-02-26 15:13:37,0.01
2026-02-26 15:13:37,0
2026-02-26 15:13:37,0
2026-02-26 15:13:37,-0.01
2026-02-26 15:13:37,0.01
2026-02-26 15:13:37,0
2026-02-26 15:13:37,0
2026-02-26 15:13:37,0
2026-02-26 15:13:37,0
2026-02-26 15:13:37,0
2026-02-26 15:13:37,0
2026-02-26 15:13:37,0.01
2026-02-26 15:13:37,-0.01
2026-02-26 15:13:37,0
2026-02-26 15:13:37,-0.01
2026-02-26 15:13:37,0.01
2026-02-26 15:13:37,-0.01
2026-02-26 15:13:37,0.01
2026-02-26 15:13:37,-0.02
2026-02-26 15:13:37,0.01
2026-02-26 15:13:37,-0.01
2026-02-26 15:13:37,0.01
2026-02-26 15:13:37,-0.01
2026-02-26 15:13:37,0.01
2026-02-26 15:13:38,-0.01
2026-02-26 15:13:38,0.01
2026-02-26 15:13:38,-0.02
2026-02-26 15:13:38,0.02
2026-02-26 15:13:38,-0.01
2026-02-26 15:13:38,0
2026-02-26 15:13:38,-0.01
2026-02-26 15:13:38,0.02
2026-02-26 15:13:38,-0.02
2026-02-26 15:13:38,0.01
2026-02-26 15:13:38,-0.01
2026-02-26 15:13:38,0.01
2026-02-26 15:13:38,-0.01
2026-02-26 15:13:38,0
2026-02-26 15:13:38,-0.01
2026-02-26 15:13:38,0.01
2026-02-26 15:13:38,-0.02
2026-02-26 15:13:38,0.02
2026-02-26 15:13:38,-0.02
2026-02-26 15:13:38,0.03
2026-02-26 15:13:38,-0.02
2026-02-26 15:13:38,0
2026-02-26 15:13:38,0
2026-02-26 15:13:38,0.01
2026-02-26 15:13:38,-0.02
2026-02-26 15:13:38,0.02
2026-02-26 15:13:38,-0.01
2026-02-26 15:13:38,0.01
2026-02-26 15:13:38,-0.01
2026-02-26 15:13:38,0.02
2026-02-26 15:13:38,-0.01
2026-02-26 15:13:38,0.01
2026-02-26 15:13:38,-0.02
2026-02-26 15:13:38,0.02
2026-02-26 15:13:38,-0.02
2026-02-26 15:13:38,0.02
2026-02-26 15:13:38,-0.02
2026-02-26 15:13:38,0.01
2026-02-26 15:13:38,-0.01
2026-02-26 15:13:38,0.01
2026-02-26 15:13:38,-0.01
2026-02-26 15:13:38,0.01
2026-02-26 15:13:38,-0.02
2026-02-26 15:13:38,0.02
2026-02-26 15:13:38,-0.02
2026-02-26 15:13:38,0.01
2026-02-26 15:13:38,-0.02
2026-02-26 15:13:38,0.02
2026-02-26 15:13:38,-0.02
2026-02-26 15:13:38,0.02
2026-02-26 15:13:38,-0.02
2026-02-26 15:13:38,0.01
2026-02-26 15:13:38,-0.01
2026-02-26 15:13:38,0.01
2026-02-26 15:13:38,-0.01
2026-02-26 15:13:38,0.01
2026-02-26 15:13:38,-0.01
2026-02-26 15:13:38,0.01
2026-02-26 15:13:38,-0.01
2026-02-26 15:13:38,0.01
2026-02-26 15:13:38,-0.01
2026-02-26 15:13:38,0.01
2026-02-26 15:13:38,0
2026-02-26 15:13:38,0
2026-02-26 15:13:38,-0.01
2026-02-26 15:13:38,0.01
2026-02-26 15:13:38,0
2026-02-26 15:13:38,0
2026-02-26 15:13:38,0
2026-02-26 15:13:38,0
2026-02-26 15:13:38,0
2026-02-26 15:13:38,0
2026-02-26 15:13:38,0
2026-02-26 15:13:38,0
2026-02-26 15:13:38,0
2026-02-26 15:13:39,0
2026-02-26 15:13:39,0.01
2026-02-26 15:13:39,-0.01
2026-02-26 15:13:39,0
2026-02-26 15:13:39,0
2026-02-26 15:13:39,0.01
2026-02-26 15:13:39,-0.02
2026-02-26 15:13:39,0
2026-02-26 15:13:39,0
2026-02-26 15:13:39,0.01
2026-02-26 15:13:39,-0.01
2026-02-26 15:13:39,0.01
2026-02-26 15:13:39,0
2026-02-26 15:13:39,0.01
2026-02-26 15:13:39,-0.01
2026-02-26 15:13:39,0.01
2026-02-26 15:13:39,-0.01
2026-02-26 15:13:39,0.01
2026-02-26 15:13:39,-0.01
2026-02-26 15:13:39,0.01
2026-02-26 15:13:39,-0.01
2026-02-26 15:13:39,0.01
2026-02-26 15:13:39,-0.01
2026-02-26 15:13:39,0.01
2026-02-26 15:13:39,-0.01
2026-02-26 15:13:39,0.01
2026-02-26 15:13:39,-0.01
2026-02-26 15:13:39,0
2026-02-26 15:13:39,0
2026-02-26 15:13:39,0.01
2026-02-26 15:13:39,-0.02
2026-02-26 15:13:39,0.02
2026-02-26 15:13:39,-0.01
2026-02-26 15:13:39,0.01
2026-02-26 15:13:39,-0.01
2026-02-26 15:13:39,0.01
2026-02-26 15:13:39,-0.01
2026-02-26 15:13:39,0.01
2026-02-26 15:13:39,-0.01
2026-02-26 15:13:39,0.01
2026-02-26 15:13:39,-0.01
2026-02-26 15:13:39,0.01
2026-02-26 15:13:39,-0.01
2026-02-26 15:13:39,0.01
2026-02-26 15:13:39,0
2026-02-26 15:13:39,0.01
2026-02-26 15:13:39,-0.01
2026-02-26 15:13:39,0.01
2026-02-26 15:13:39,-0.01
2026-02-26 15:13:39,0.01
2026-02-26 15:13:39,0
2026-02-26 15:13:39,0
2026-02-26 15:13:39,0
2026-02-26 15:13:39,0.01
2026-02-26 15:13:39,-0.01
2026-02-26 15:13:39,0
2026-02-26 15:13:39,0
2026-02-26 15:13:39,0.01
2026-02-26 15:13:39,-0.01
2026-02-26 15:13:39,0
2026-02-26 15:13:39,0
2026-02-26 15:13:39,0
2026-02-26 15:13:39,-0.01
2026-02-26 15:13:39,0.01
2026-02-26 15:13:39,-0.01
2026-02-26 15:13:39,0
2026-02-26 15:13:39,0
2026-02-26 15:13:39,0
2026-02-26 15:13:39,0
2026-02-26 15:13:39,0
2026-02-26 15:13:39,0
2026-02-26 15:13:39,0
2026-02-26 15:13:39,0
2026-02-26 15:13:39,0
2026-02-26 15:13:39,0
2026-02-26 15:13:40,0
2026-02-26 15:13:40,0
2026-02-26 15:13:40,0
2026-02-26 15:13:40,0
2026-02-26 15:13:40,0
2026-02-26 15:13:40,0
2026-02-26 15:13:40,0
2026-02-26 15:13:40,0
2026-02-26 15:13:40,0
2026-02-26 15:13:40,0
2026-02-26 15:13:40,0
2026-02-26 15:13:40,0.01
2026-02-26 15:13:40,-0.01
2026-02-26 15:13:40,0
2026-02-26 15:13:40,0
2026-02-26 15:13:40,0
2026-02-26 15:13:40,0
2026-02-26 15:13:40,0
2026-02-26 15:13:40,0
2026-02-26 15:13:40,0
2026-02-26 15:13:40,0
2026-02-26 15:13:40,0
2026-02-26 15:13:40,-0.01
2026-02-26 15:13:40,0.01
2026-02-26 15:13:40,-0.01
2026-02-26 15:13:40,0
2026-02-26 15:13:40,0
2026-02-26 15:13:40,0
2026-02-26 15:13:40,0
2026-02-26 15:13:40,0
2026-02-26 15:13:40,0.01
2026-02-26 15:13:40,0
2026-02-26 15:13:40,0
2026-02-26 15:13:40,0
2026-02-26 15:13:40,0
2026-02-26 15:13:40,0
2026-02-26 15:13:40,0
2026-02-26 15:13:40,0
2026-02-26 15:13:40,0
2026-02-26 15:13:40,0
2026-02-26 15:13:40,0
2026-02-26 15:13:40,0
2026-02-26 15:13:40,-0.01
2026-02-26 15:13:40,0
2026-02-26 15:13:40,0
2026-02-26 15:13:40,0
2026-02-26 15:13:40,-0.01
2026-02-26 15:13:40,0
2026-02-26 15:13:40,0
2026-02-26 15:13:40,0
2026-02-26 15:13:40,-0.01
2026-02-26 15:13:40,0.01
2026-02-26 15:13:40,0
2026-02-26 15:13:40,0
2026-02-26 15:13:40,0
2026-02-26 15:13:40,0
2026-02-26 15:13:40,0
2026-02-26 15:13:40,0
2026-02-26 15:13:40,0
2026-02-26 15:13:40,0.01
2026-02-26 15:13:40,-0.01
2026-02-26 15:13:40,0.01
2026-02-26 15:13:40,0
2026-02-26 15:13:40,0
2026-02-26 15:13:40,0
2026-02-26 15:13:40,0
2026-02-26 15:13:40,-0.01
2026-02-26 15:13:40,0.01
2026-02-26 15:13:40,0
2026-02-26 15:13:40,0
2026-02-26 15:13:40,0
2026-02-26 15:13:40,0
2026-02-26 15:13:40,0
2026-02-26 15:13:40,0
2026-02-26 15:13:40,0
2026-02-26 15:13:41,0.01
2026-02-26 15:13:41,-0.01
2026-02-26 15:13:41,0.01
2026-02-26 15:13:41,-0.01
2026-02-26 15:13:41,0.01
2026-02-26 15:13:41,-0.01
2026-02-26 15:13:41,0.01
2026-02-26 15:13:41,0
2026-02-26 15:13:41,0
2026-02-26 15:13:41,0
2026-02-26 15:13:41,0
2026-02-26 15:13:41,-0.01
2026-02-26 15:13:41,0.01
2026-02-26 15:13:41,0
2026-02-26 15:13:41,0
2026-02-26 15:13:41,0
2026-02-26 15:13:41,0
2026-02-26 15:13:41,0
2026-02-26 15:13:41,0
2026-02-26 15:13:41,0
2026-02-26 15:13:41,0
2026-02-26 15:13:41,0
2026-02-26 15:13:41,0
2026-02-26 15:13:41,0.01
2026-02-26 15:13:41,-0.01
2026-02-26 15:13:41,0
2026-02-26 15:13:41,0
2026-02-26 15:13:41,0
2026-02-26 15:13:41,0
2026-02-26 15:13:41,-0.01
2026-02-26 15:13:41,0
2026-02-26 15:13:41,0
2026-02-26 15:13:41,0
2026-02-26 15:13:41,0
2026-02-26 15:13:41,0
2026-02-26 15:13:41,-0.01
2026-02-26 15:13:41,0
2026-02-26 15:13:41,0
2026-02-26 15:13:41,0
2026-02-26 15:13:41,0
2026-02-26 15:13:41,0
2026-02-26 15:13:41,0
2026-02-26 15:13:41,0
2026-02-26 15:13:41,0
2026-02-26 15:13:41,0
2026-02-26 15:13:41,0
2026-02-26 15:13:41,0
2026-02-26 15:13:41,0
2026-02-26 15:13:41,0
2026-02-26 15:13:41,-0.01
2026-02-26 15:13:41,0.01
2026-02-26 15:13:41,0.01
2026-02-26 15:13:41,-0.01
2026-02-26 15:13:41,0.01
2026-02-26 15:13:41,-0.01
2026-02-26 15:13:41,0.01
2026-02-26 15:13:41,0
2026-02-26 15:13:41,0
2026-02-26 15:13:41,0
2026-02-26 15:13:41,0
2026-02-26 15:13:41,0
2026-02-26 15:13:41,0
2026-02-26 15:13:41,0
2026-02-26 15:13:41,0
2026-02-26 15:13:41,0
2026-02-26 15:13:41,0
2026-02-26 15:13:41,0
2026-02-26 15:13:41,0
2026-02-26 15:13:41,0
2026-02-26 15:13:41,0
2026-02-26 15:13:41,-0.01
2026-02-26 15:13:41,0
2026-02-26 15:13:41,0
2026-02-26 15:13:41,0
2026-02-26 15:13:41,0
2026-02-26 15:13:42,0.01
2026-02-26 15:13:42,0
2026-02-26 15:13:42,0
2026-02-26 15:13:42,0
2026-02-26 15:13:42,0
2026-02-26 15:13:42,-0.01
2026-02-26 15:13:42,0.01
2026-02-26 15:13:42,0
2026-02-26 15:13:42,0
2026-02-26 15:13:42,-0.01
2026-02-26 15:13:42,0.01
2026-02-26 15:13:42,-0.01
2026-02-26 15:13:42,0
2026-02-26 15:13:42,0
2026-02-26 15:13:42,0.01
2026-02-26 15:13:42,-0.01
2026-02-26 15:13:42,0.01
2026-02-26 15:13:42,-0.01
2026-02-26 15:13:42,0.01
2026-02-26 15:13:42,-0.01
2026-02-26 15:13:42,0.01
2026-02-26 15:13:42,-0.01
2026-02-26 15:13:42,0.01
2026-02-26 15:13:42,0
2026-02-26 15:13:42,0
2026-02-26 15:13:42,-0.01
2026-02-26 15:13:42,0.01
2026-02-26 15:13:42,-0.01
2026-02-26 15:13:42,0.01
2026-02-26 15:13:42,0
2026-02-26 15:13:42,0.01
2026-02-26 15:13:42,-0.01
2026-02-26 15:13:42,0.01
2026-02-26 15:13:42,-0.01
2026-02-26 15:13:42,0.01
2026-02-26 15:13:42,0
2026-02-26 15:13:42,0
2026-02-26 15:13:42,-0.01
2026-02-26 15:13:42,0.02
2026-02-26 15:13:42,-0.01
2026-02-26 15:13:42,0
2026-02-26 15:13:42,0
2026-02-26 15:13:42,0
2026-02-26 15:13:42,0
2026-02-26 15:13:42,0
2026-02-26 15:13:42,0
2026-02-26 15:13:42,0
2026-02-26 15:13:42,0
2026-02-26 15:13:42,0
2026-02-26 15:13:42,0
2026-02-26 15:13:42,0
2026-02-26 15:13:42,0
2026-02-26 15:13:42,0
2026-02-26 15:13:42,0
2026-02-26 15:13:42,0
2026-02-26 15:13:42,0
2026-02-26 15:13:42,0
2026-02-26 15:13:42,0
2026-02-26 15:13:42,0
2026-02-26 15:13:42,0
2026-02-26 15:13:42,0
2026-02-26 15:13:42,0
2026-02-26 15:13:42,0
2026-02-26 15:13:42,0
2026-02-26 15:13:42,0
2026-02-26 15:13:42,-0.01
2026-02-26 15:13:42,0
2026-02-26 15:13:42,0.01
2026-02-26 15:13:42,-0.01
2026-02-26 15:13:42,0.01
2026-02-26 15:13:42,-0.01
2026-02-26 15:13:42,0
2026-02-26 15:13:42,0
2026-02-26 15:13:42,0
2026-02-26 15:13:42,0
2026-02-26 15:13:43,0
2026-02-26 15:13:43,-0.01
2026-02-26 15:13:43,0.01
2026-02-26 15:13:43,-0.01
2026-02-26 15:13:43,0.01
2026-02-26 15:13:43,0
2026-02-26 15:13:43,0
2026-02-26 15:13:43,-0.01
2026-02-26 15:13:43,0.01
2026-02-26 15:13:43,0
2026-02-26 15:13:43,0.01
2026-02-26 15:13:43,0
2026-02-26 15:13:43,0
2026-02-26 15:13:43,0
2026-02-26 15:13:43,0
2026-02-26 15:13:43,-0.01
2026-02-26 15:13:43,0.01
2026-02-26 15:13:43,-0.01
2026-02-26 15:13:43,0.01
2026-02-26 15:13:43,0
2026-02-26 15:13:43,0
2026-02-26 15:13:43,0
2026-02-26 15:13:43,0
2026-02-26 15:13:43,-0.01
2026-02-26 15:13:43,0.01
2026-02-26 15:13:43,-0.01
2026-02-26 15:13:43,0.01
2026-02-26 15:13:43,-0.01
2026-02-26 15:13:43,0.01
2026-02-26 15:13:43,0
2026-02-26 15:13:43,0
2026-02-26 15:13:43,0
2026-02-26 15:13:43,0.01
2026-02-26 15:13:43,-0.01
2026-02-26 15:13:43,0.01
2026-02-26 15:13:43,-0.01
2026-02-26 15:13:43,0
2026-02-26 15:13:43,0
2026-02-26 15:13:43,0
2026-02-26 15:13:43,-0.01
2026-02-26 15:13:43,0.01
2026-02-26 15:13:43,-0.01
2026-02-26 15:13:43,0.01
2026-02-26 15:13:43,0
2026-02-26 15:13:43,0
2026-02-26 15:13:43,0
2026-02-26 15:13:43,0.01
2026-02-26 15:13:43,-0.01
2026-02-26 15:13:43,0.01
2026-02-26 15:13:43,0
2026-02-26 15:13:43,0
2026-02-26 15:13:43,-0.01
2026-02-26 15:13:43,0.01
2026-02-26 15:13:43,-0.01
2026-02-26 15:13:43,0
2026-02-26 15:13:43,-0.01
2026-02-26 15:13:43,0.01
2026-02-26 15:13:43,-0.01
2026-02-26 15:13:43,0.01
2026-02-26 15:13:43,-0.01
2026-02-26 15:13:43,0.01
2026-02-26 15:13:43,-0.01
2026-02-26 15:13:43,0.01
2026-02-26 15:13:43,-0.01
2026-02-26 15:13:43,0.01
2026-02-26 15:13:43,-0.01
2026-02-26 15:13:43,0.01
2026-02-26 15:13:43,-0.01
2026-02-26 15:13:43,0.01
2026-02-26 15:13:43,0
2026-02-26 15:13:43,-0.01
2026-02-26 15:13:43,-0.01
2026-02-26 15:13:43,0.01
2026-02-26 15:13:43,-0.01
2026-02-26 15:13:43,0
2026-02-26 15:13:44,0
2026-02-26 15:13:44,0.01
2026-02-26 15:13:44,-0.01
2026-02-26 15:13:44,0.01
2026-02-26 15:13:44,-0.01
2026-02-26 15:13:44,0.01
2026-02-26 15:13:44,-0.01
2026-02-26 15:13:44,0
2026-02-26 15:13:44,0
2026-02-26 15:13:44,0.01
2026-02-26 15:13:44,-0.01
2026-02-26 15:13:44,0
2026-02-26 15:13:44,0
2026-02-26 15:13:44,0.01
2026-02-26 15:13:44,-0.01
2026-02-26 15:13:44,0
2026-02-26 15:13:44,0
2026-02-26 15:13:44,0
2026-02-26 15:13:44,0
2026-02-26 15:13:44,0
2026-02-26 15:13:44,-0.01
2026-02-26 15:13:44,0.01
2026-02-26 15:13:44,0
2026-02-26 15:13:44,0
2026-02-26 15:13:44,-0.01
2026-02-26 15:13:44,0.01
2026-02-26 15:13:44,-0.01
2026-02-26 15:13:44,0
2026-02-26 15:13:44,0
2026-02-26 15:13:44,0
2026-02-26 15:13:44,0
2026-02-26 15:13:44,0.01
2026-02-26 15:13:44,-0.01
2026-02-26 15:13:44,0.01
2026-02-26 15:13:44,-0.01
2026-02-26 15:13:44,0
2026-02-26 15:13:44,0
2026-02-26 15:13:44,0
2026-02-26 15:13:44,0
2026-02-26 15:13:44,0.01
2026-02-26 15:13:44,0
2026-02-26 15:13:44,0
2026-02-26 15:13:44,0.01
2026-02-26 15:13:44,0
2026-02-26 15:13:44,-0.01
2026-02-26 15:13:44,0.01
2026-02-26 15:13:44,0
2026-02-26 15:13:44,0
2026-02-26 15:13:44,-0.01
2026-02-26 15:13:44,0.01
2026-02-26 15:13:44,-0.01
2026-02-26 15:13:44,0.01
2026-02-26 15:13:44,0
2026-02-26 15:13:44,0
2026-02-26 15:13:44,0
2026-02-26 15:13:44,0
2026-02-26 15:13:44,0
2026-02-26 15:13:44,0
2026-02-26 15:13:44,0
2026-02-26 15:13:44,0
2026-02-26 15:13:44,0
2026-02-26 15:13:44,0.01
2026-02-26 15:13:44,0
2026-02-26 15:13:44,0
2026-02-26 15:13:44,0
2026-02-26 15:13:44,0
2026-02-26 15:13:44,-0.01
2026-02-26 15:13:44,0.01
2026-02-26 15:13:44,-0.01
2026-02-26 15:13:44,0.01
2026-02-26 15:13:44,-0.01
2026-02-26 15:13:44,0.01
2026-02-26 15:13:44,0
2026-02-26 15:13:44,0
2026-02-26 15:13:44,0
2026-02-26 15:13:45,0
2026-02-26 15:13:45,0
2026-02-26 15:13:45,0
2026-02-26 15:13:45,0
2026-02-26 15:13:45,0
2026-02-26 15:13:45,0
2026-02-26 15:13:45,0
2026-02-26 15:13:45,0
2026-02-26 15:13:45,0
2026-02-26 15:13:45,0
2026-02-26 15:13:45,0
2026-02-26 15:13:45,-0.01
2026-02-26 15:13:45,0
2026-02-26 15:13:45,0
2026-02-26 15:13:45,0
2026-02-26 15:13:45,0
2026-02-26 15:13:45,0
2026-02-26 15:13:45,0
2026-02-26 15:13:45,0
2026-02-26 15:13:45,0
2026-02-26 15:13:45,0
2026-02-26 15:13:45,0
2026-02-26 15:13:45,0
2026-02-26 15:13:45,0
2026-02-26 15:13:45,0
2026-02-26 15:13:45,-0.01
2026-02-26 15:13:45,0
2026-02-26 15:13:45,0
2026-02-26 15:13:45,0.01
2026-02-26 15:13:45,-0.01
2026-02-26 15:13:45,0
2026-02-26 15:13:45,0.01
2026-02-26 15:13:45,0
2026-02-26 15:13:45,0
2026-02-26 15:13:45,0
2026-02-26 15:13:45,0
2026-02-26 15:13:45,0
2026-02-26 15:13:45,0
2026-02-26 15:13:45,0
2026-02-26 15:13:45,0
2026-02-26 15:13:45,0
2026-02-26 15:13:45,0
2026-02-26 15:13:45,0
2026-02-26 15:13:45,0
2026-02-26 15:13:45,-0.01
2026-02-26 15:13:45,0.01
2026-02-26 15:13:45,-0.01
2026-02-26 15:13:45,0
2026-02-26 15:13:45,0
2026-02-26 15:13:45,0.01
2026-02-26 15:13:45,-0.01
2026-02-26 15:13:45,0
2026-02-26 15:13:45,0
2026-02-26 15:13:45,0.01
2026-02-26 15:13:45,-0.01
2026-02-26 15:13:45,0.01
2026-02-26 15:13:45,-0.01
2026-02-26 15:13:45,0.01
2026-02-26 15:13:45,0
2026-02-26 15:13:45,0
2026-02-26 15:13:45,0
2026-02-26 15:13:45,0
2026-02-26 15:13:45,-0.01
2026-02-26 15:13:45,0.01
2026-02-26 15:13:45,-0.01
2026-02-26 15:13:45,0
2026-02-26 15:13:45,0
2026-02-26 15:13:45,0
2026-02-26 15:13:45,0
2026-02-26 15:13:45,0
2026-02-26 15:13:45,0
2026-02-26 15:13:45,0
2026-02-26 15:13:45,-0.01
2026-02-26 15:13:45,0.01
2026-02-26 15:13:45,-0.01
2026-02-26 15:13:46,0.01
2026-02-26 15:13:46,0
2026-02-26 15:13:46,0
2026-02-26 15:13:46,0
2026-02-26 15:13:46,0
2026-02-26 15:13:46,-0.01
2026-02-26 15:13:46,0.01
2026-02-26 15:13:46,0
2026-02-26 15:13:46,0
2026-02-26 15:13:46,-0.01
2026-02-26 15:13:46,0.01
2026-02-26 15:13:46,-0.01
2026-02-26 15:13:46,0.01
2026-02-26 15:13:46,-0.01
2026-02-26 15:13:46,0
2026-02-26 15:13:46,0
2026-02-26 15:13:46,0.01
2026-02-26 15:13:46,-0.01
2026-02-26 15:13:46,0.01
2026-02-26 15:13:46,0
2026-02-26 15:13:46,0
2026-02-26 15:13:46,-0.01
2026-02-26 15:13:46,0.01
2026-02-26 15:13:46,0
2026-02-26 15:13:46,0
2026-02-26 15:13:46,-0.01
2026-02-26 15:13:46,0.01
2026-02-26 15:13:46,0
2026-02-26 15:13:46,0
2026-02-26 15:13:46,-0.01
2026-02-26 15:13:46,0.01
2026-02-26 15:13:46,-0.01
2026-02-26 15:13:46,0.01
2026-02-26 15:13:46,-0.01
2026-02-26 15:13:46,0.01
2026-02-26 15:13:46,-0.01
2026-02-26 15:13:46,0.01
2026-02-26 15:13:46,-0.01
2026-02-26 15:13:46,0.01
2026-02-26 15:13:46,-0.01
2026-02-26 15:13:46,0.01
2026-02-26 15:13:46,0
2026-02-26 15:13:46,0
2026-02-26 15:13:46,0
2026-02-26 15:13:46,0.01
2026-02-26 15:13:46,-0.01
2026-02-26 15:13:46,0.01
2026-02-26 15:13:46,-0.01
2026-02-26 15:13:46,0.01
2026-02-26 15:13:46,-0.01
2026-02-26 15:13:46,0.01
2026-02-26 15:13:46,0
2026-02-26 15:13:46,0
2026-02-26 15:13:46,-0.01
2026-02-26 15:13:46,0.01
2026-02-26 15:13:46,-0.01
2026-02-26 15:13:46,0.01
2026-02-26 15:13:46,-0.01
2026-02-26 15:13:46,0.01
2026-02-26 15:13:46,-0.01
2026-02-26 15:13:46,0.01
2026-02-26 15:13:46,-0.01
2026-02-26 15:13:46,0.01
2026-02-26 15:13:46,-0.01
2026-02-26 15:13:46,0.01
2026-02-26 15:13:46,-0.01
2026-02-26 15:13:46,0.01
2026-02-26 15:13:46,-0.01
2026-02-26 15:13:46,0.01
2026-02-26 15:13:46,-0.01
2026-02-26 15:13:46,0.01
2026-02-26 15:13:46,-0.01
2026-02-26 15:13:46,0.01
2026-02-26 15:13:46,-0.01
2026-02-26 15:13:46,0.01
2026-02-26 15:13:47,-0.01
2026-02-26 15:13:47,0.01
2026-02-26 15:13:47,-0.01
2026-02-26 15:13:47,0.01
2026-02-26 15:13:47,-0.01
2026-02-26 15:13:47,0.01
2026-02-26 15:13:47,-0.01
2026-02-26 15:13:47,0.01
2026-02-26 15:13:47,-0.01
2026-02-26 15:13:47,0.01
2026-02-26 15:13:47,-0.01
2026-02-26 15:13:47,0.01
2026-02-26 15:13:47,-0.01
2026-02-26 15:13:47,0.01
2026-02-26 15:13:47,-0.02
2026-02-26 15:13:47,0.01
2026-02-26 15:13:47,-0.01
2026-02-26 15:13:47,0.01
2026-02-26 15:13:47,-0.01
2026-02-26 15:13:47,0.01
2026-02-26 15:13:47,-0.01
2026-02-26 15:13:47,0.01
2026-02-26 15:13:47,-0.01
2026-02-26 15:13:47,0.01
2026-02-26 15:13:47,-0.01
2026-02-26 15:13:47,0
2026-02-26 15:13:47,-0.01
2026-02-26 15:13:47,0.01
2026-02-26 15:13:47,-0.01
2026-02-26 15:13:47,0.02
2026-02-26 15:13:47,-0.01
2026-02-26 15:13:47,0.01
2026-02-26 15:13:47,-0.01
2026-02-26 15:13:47,0.02
2026-02-26 15:13:47,-0.02
2026-02-26 15:13:47,0.01
2026-02-26 15:13:47,-0.01
2026-02-26 15:13:47,0.02
2026-02-26 15:13:47,-0.02
2026-02-26 15:13:47,0.02
2026-02-26 15:13:47,-0.01
2026-02-26 15:13:47,0.01
2026-02-26 15:13:47,-0.01
2026-02-26 15:13:47,0.02
2026-02-26 15:13:47,-0.02
2026-02-26 15:13:47,0.02
2026-02-26 15:13:47,-0.01
2026-02-26 15:13:47,0.01
2026-02-26 15:13:47,-0.01
2026-02-26 15:13:47,0.01
2026-02-26 15:13:47,-0.01
2026-02-26 15:13:47,0.01
2026-02-26 15:13:47,-0.02
2026-02-26 15:13:47,0.02
2026-02-26 15:13:47,-0.01
2026-02-26 15:13:47,0.01
2026-02-26 15:13:47,-0.01
2026-02-26 15:13:47,0.01
2026-02-26 15:13:47,-0.01
2026-02-26 15:13:47,0.01
2026-02-26 15:13:47,-0.02
2026-02-26 15:13:47,0.02
2026-02-26 15:13:47,-0.01
2026-02-26 15:13:47,0.02
2026-02-26 15:13:47,-0.01
2026-02-26 15:13:47,0.01
2026-02-26 15:13:47,-0.01
2026-02-26 15:13:47,0.01
2026-02-26 15:13:47,-0.01
2026-02-26 15:13:47,0.01
2026-02-26 15:13:47,-0.01
2026-02-26 15:13:47,0.01
2026-02-26 15:13:47,-0.01
2026-02-26 15:13:47,0.01
2026-02-26 15:13:47,-0.01
2026-02-26 15:13:48,0.01
2026-02-26 15:13:48,-0.01
2026-02-26 15:13:48,0.01
2026-02-26 15:13:48,-0.01
2026-02-26 15:13:48,0.01
2026-02-26 15:13:48,-0.01
2026-02-26 15:13:48,0.01
2026-02-26 15:13:48,-0.01
2026-02-26 15:13:48,0
2026-02-26 15:13:48,0
2026-02-26 15:13:48,0.01
2026-02-26 15:13:48,-0.01
2026-02-26 15:13:48,0.01
2026-02-26 15:13:48,-0.01
2026-02-26 15:13:48,0.01
2026-02-26 15:13:48,-0.01
2026-02-26 15:13:48,0.01
2026-02-26 15:13:48,-0.01
2026-02-26 15:13:48,0.01
2026-02-26 15:13:48,-0.01
2026-02-26 15:13:48,0
2026-02-26 15:13:48,0
2026-02-26 15:13:48,0
2026-02-26 15:13:48,0
2026-02-26 15:13:48,0
2026-02-26 15:13:48,0
2026-02-26 15:13:48,0
2026-02-26 15:13:48,0
2026-02-26 15:13:48,0.01
2026-02-26 15:13:48,-0.01
2026-02-26 15:13:48,0
2026-02-26 15:13:48,0
2026-02-26 15:13:48,0
2026-02-26 15:13:48,0
2026-02-26 15:13:48,0
2026-02-26 15:13:48,0
2026-02-26 15:13:48,0
2026-02-26 15:13:48,0
2026-02-26 15:13:48,0
2026-02-26 15:13:48,0
2026-02-26 15:13:48,0
2026-02-26 15:13:48,0
2026-02-26 15:13:48,0
2026-02-26 15:13:48,0.01
2026-02-26 15:13:48,-0.01
2026-02-26 15:13:48,0
2026-02-26 15:13:48,0
2026-02-26 15:13:48,0
2026-02-26 15:13:48,0
2026-02-26 15:13:48,0
2026-02-26 15:13:48,-0.01
2026-02-26 15:13:48,0.01
2026-02-26 15:13:48,0
2026-02-26 15:13:48,0
2026-02-26 15:13:48,0
2026-02-26 15:13:48,0.01
2026-02-26 15:13:48,0
2026-02-26 15:13:48,0
2026-02-26 15:13:48,-0.01
2026-02-26 15:13:48,0.01
2026-02-26 15:13:48,0
2026-02-26 15:13:48,0
2026-02-26 15:13:48,-0.01
2026-02-26 15:13:48,0.01
2026-02-26 15:13:48,-0.01
2026-02-26 15:13:48,0.01
2026-02-26 15:13:48,0
2026-02-26 15:13:48,0.01
2026-02-26 15:13:48,-0.01
2026-02-26 15:13:48,0.01
2026-02-26 15:13:48,-0.01
2026-02-26 15:13:48,0
2026-02-26 15:13:48,0
2026-02-26 15:13:48,0.01
2026-02-26 15:13:48,-0.01
2026-02-26 15:13:49,0.01
2026-02-26 15:13:49,-0.01
2026-02-26 15:13:49,0.01
2026-02-26 15:13:49,-0.01
2026-02-26 15:13:49,0.01
2026-02-26 15:13:49,-0.01
2026-02-26 15:13:49,0.01
2026-02-26 15:13:49,-0.01
2026-02-26 15:13:49,0
2026-02-26 15:13:49,-0.01
2026-02-26 15:13:49,0.01
2026-02-26 15:13:49,-0.01
2026-02-26 15:13:49,0.01
2026-02-26 15:13:49,-0.01
2026-02-26 15:13:49,0.01
2026-02-26 15:13:49,-0.01
2026-02-26 15:13:49,0
2026-02-26 15:13:49,0
2026-02-26 15:13:49,0.01
2026-02-26 15:13:49,-0.01
2026-02-26 15:13:49,0.01
2026-02-26 15:13:49,-0.01
2026-02-26 15:13:49,0
2026-02-26 15:13:49,0
2026-02-26 15:13:49,0.01
2026-02-26 15:13:49,0
2026-02-26 15:13:49,0
2026-02-26 15:13:49,0
2026-02-26 15:13:49,0
2026-02-26 15:13:49,0
2026-02-26 15:13:49,0
2026-02-26 15:13:49,0
2026-02-26 15:13:49,0
2026-02-26 15:13:49,0
2026-02-26 15:13:49,0
2026-02-26 15:13:49,-0.01
2026-02-26 15:13:49,0.01
2026-02-26 15:13:49,0
2026-02-26 15:13:49,0
2026-02-26 15:13:49,0
2026-02-26 15:13:49,0
2026-02-26 15:13:49,0
2026-02-26 15:13:49,0
2026-02-26 15:13:49,0
2026-02-26 15:13:49,0
2026-02-26 15:13:49,0
2026-02-26 15:13:49,0
2026-02-26 15:13:49,0
2026-02-26 15:13:49,0
2026-02-26 15:13:49,0
2026-02-26 15:13:49,0
2026-02-26 15:13:49,0
2026-02-26 15:13:49,0
2026-02-26 15:13:49,0
2026-02-26 15:13:49,0
2026-02-26 15:13:49,0
2026-02-26 15:13:49,-0.01
2026-02-26 15:13:49,0.01
2026-02-26 15:13:49,0
2026-02-26 15:13:49,-0.01
2026-02-26 15:13:49,0
2026-02-26 15:13:49,0.01
2026-02-26 15:13:49,-0.01
2026-02-26 15:13:49,0.01
2026-02-26 15:13:49,-0.01
2026-02-26 15:13:49,0
2026-02-26 15:13:49,0
2026-02-26 15:13:49,0
2026-02-26 15:13:49,-0.01
2026-02-26 15:13:49,0.01
2026-02-26 15:13:49,-0.01
2026-02-26 15:13:49,0
2026-02-26 15:13:49,0
2026-02-26 15:13:49,0
2026-02-26 15:13:49,0
2026-02-26 15:13:50,0
2026-02-26 15:13:50,0
2026-02-26 15:13:50,0
2026-02-26 15:13:50,0
2026-02-26 15:13:50,0.01
2026-02-26 15:13:50,-0.01
2026-02-26 15:13:50,0
2026-02-26 15:13:50,0
2026-02-26 15:13:50,0
2026-02-26 15:13:50,0
2026-02-26 15:13:50,0
2026-02-26 15:13:50,0
2026-02-26 15:13:50,0
2026-02-26 15:13:50,0
2026-02-26 15:13:50,0
2026-02-26 15:13:50,0
2026-02-26 15:13:50,0
2026-02-26 15:13:50,0
2026-02-26 15:13:50,0.01
2026-02-26 15:13:50,-0.01
2026-02-26 15:13:50,0
2026-02-26 15:13:50,0
2026-02-26 15:13:50,0
2026-02-26 15:13:50,0
2026-02-26 15:13:50,0
2026-02-26 15:13:50,0
2026-02-26 15:13:50,0
2026-02-26 15:13:50,0
2026-02-26 15:13:50,0
2026-02-26 15:13:50,0
2026-02-26 15:13:50,0
2026-02-26 15:13:50,0
2026-02-26 15:13:50,0
2026-02-26 15:13:50,0
2026-02-26 15:13:50,0
2026-02-26 15:13:50,0
2026-02-26 15:13:50,0
2026-02-26 15:13:50,0
2026-02-26 15:13:50,0
2026-02-26 15:13:50,0
2026-02-26 15:13:50,0
2026-02-26 15:13:50,0
2026-02-26 15:13:50,0
2026-02-26 15:13:50,0
2026-02-26 15:13:50,0
2026-02-26 15:13:50,-0.01
2026-02-26 15:13:50,0
2026-02-26 15:13:50,0
2026-02-26 15:13:50,0
2026-02-26 15:13:50,0
2026-02-26 15:13:50,0
2026-02-26 15:13:50,0
2026-02-26 15:13:50,0
2026-02-26 15:13:50,0
2026-02-26 15:13:50,0
2026-02-26 15:13:50,0
2026-02-26 15:13:50,0
2026-02-26 15:13:50,0
2026-02-26 15:13:50,-0.01
2026-02-26 15:13:50,0.01
2026-02-26 15:13:50,0
2026-02-26 15:13:50,0
2026-02-26 15:13:50,0
2026-02-26 15:13:50,0
2026-02-26 15:13:50,0
2026-02-26 15:13:50,0
2026-02-26 15:13:50,0
2026-02-26 15:13:50,0
2026-02-26 15:13:50,0
2026-02-26 15:13:50,0
2026-02-26 15:13:50,0
2026-02-26 15:13:50,0
2026-02-26 15:13:50,0
2026-02-26 15:13:50,0
2026-02-26 15:13:50,0
2026-02-26 15:13:51,0
2026-02-26 15:13:51,0
2026-02-26 15:13:51,0
2026-02-26 15:13:51,0
2026-02-26 15:13:51,0
2026-02-26 15:13:51,0
2026-02-26 15:13:51,0
2026-02-26 15:13:51,0
2026-02-26 15:13:51,0
2026-02-26 15:13:51,0
2026-02-26 15:13:51,0
2026-02-26 15:13:51,-0.01
2026-02-26 15:13:51,0
2026-02-26 15:13:51,0.01
2026-02-26 15:13:51,0
2026-02-26 15:13:51,0
2026-02-26 15:13:51,0
2026-02-26 15:13:51,0
2026-02-26 15:13:51,0
2026-02-26 15:13:51,0
2026-02-26 15:13:51,0
2026-02-26 15:13:51,0.01
2026-02-26 15:13:51,-0.01
2026-02-26 15:13:51,-0.01
2026-02-26 15:13:51,0.01
2026-02-26 15:13:51,-0.01
2026-02-26 15:13:51,0
2026-02-26 15:13:51,0.02
2026-02-26 15:13:51,-0.03
2026-02-26 15:13:51,-0.01
2026-02-26 15:13:51,0.03
2026-02-26 15:13:51,0.04
2026-02-26 15:13:51,-0.1
2026-02-26 15:13:51,0.04
2026-02-26 15:13:51,0.05
2026-02-26 15:13:51,-0.06
2026-02-26 15:13:51,0
2026-02-26 15:13:51,0.01
2026-02-26 15:13:51,0.01
2026-02-26 15:13:51,-0.03
2026-02-26 15:13:51,0.02
2026-02-26 15:13:51,0
2026-02-26 15:13:51,-0.01
2026-02-26 15:13:51,0
2026-02-26 15:13:51,0.01
2026-02-26 15:13:51,0
2026-02-26 15:13:51,0
2026-02-26 15:13:51,-0.01
2026-02-26 15:13:51,0.02
2026-02-26 15:13:51,-0.01
2026-02-26 15:13:51,-0.01
2026-02-26 15:13:51,0.01
2026-02-26 15:13:51,0
2026-02-26 15:13:51,-0.01
2026-02-26 15:13:51,0.01
2026-02-26 15:13:51,0
2026-02-26 15:13:51,0
2026-02-26 15:13:51,-0.01
2026-02-26 15:13:51,0.02
2026-02-26 15:13:51,-0.05
2026-02-26 15:13:51,0.05
2026-02-26 15:13:51,0.01
2026-02-26 15:13:51,-0.06
2026-02-26 15:13:51,0.06
2026-02-26 15:13:51,-0.04
2026-02-26 15:13:51,0
2026-02-26 15:13:51,0.04
2026-02-26 15:13:51,-0.02
2026-02-26 15:13:51,-0.01
2026-02-26 15:13:51,0
2026-02-26 15:13:51,0.01
2026-02-26 15:13:51,-0.01
2026-02-26 15:13:51,0
2026-02-26 15:13:51,0
2026-02-26 15:13:51,0.01
2026-02-26 15:13:52,-0.01
2026-02-26 15:13:52,0.01
2026-02-26 15:13:52,0
2026-02-26 15:13:52,0.01
2026-02-26 15:13:52,-0.01
2026-02-26 15:13:52,0.01
2026-02-26 15:13:52,-0.01
2026-02-26 15:13:52,0.01
2026-02-26 15:13:52,-0.01
2026-02-26 15:13:52,0
2026-02-26 15:13:52,0
2026-02-26 15:13:52,0
2026-02-26 15:13:52,0
2026-02-26 15:13:52,0
2026-02-26 15:13:52,0
2026-02-26 15:13:52,0
2026-02-26 15:13:52,0
2026-02-26 15:13:52,0
2026-02-26 15:13:52,0
2026-02-26 15:13:52,0
2026-02-26 15:13:52,0
2026-02-26 15:13:52,0
2026-02-26 15:13:52,0
2026-02-26 15:13:52,0
2026-02-26 15:13:52,0
2026-02-26 15:13:52,0
2026-02-26 15:13:52,0
2026-02-26 15:13:52,0
2026-02-26 15:13:52,0
2026-02-26 15:13:52,0
2026-02-26 15:13:52,0
2026-02-26 15:13:52,0
2026-02-26 15:13:52,-0.02
2026-02-26 15:13:52,0.07
2026-02-26 15:13:52,-0.08
2026-02-26 15:13:52,0.04
2026-02-26 15:13:52,-0.07
2026-02-26 15:13:52,0.13
2026-02-26 15:13:52,-0.07
2026-02-26 15:13:52,-0.06
2026-02-26 15:13:52,0.12
2026-02-26 15:13:52,-0.11
2026-02-26 15:13:52,0.08
2026-02-26 15:13:52,-0.06
2026-02-26 15:13:52,0.07
2026-02-26 15:13:52,-0.11
2026-02-26 15:13:52,0.1
2026-02-26 15:13:52,-0.03
2026-02-26 15:13:52,-0.04
2026-02-26 15:13:52,0.02
2026-02-26 15:13:52,0.07
2026-02-26 15:13:52,-0.08
2026-02-26 15:13:52,-0.01
2026-02-26 15:13:52,0.05
2026-02-26 15:13:52,0
2026-02-26 15:13:52,-0.05
2026-02-26 15:13:52,0.03
2026-02-26 15:13:52,0.01
2026-02-26 15:13:52,-0.04
2026-02-26 15:13:52,0.03
2026-02-26 15:13:52,0
2026-02-26 15:13:52,0.01
2026-02-26 15:13:52,-0.04
2026-02-26 15:13:52,0.02
2026-02-26 15:13:52,0.01
2026-02-26 15:13:52,-0.01
2026-02-26 15:13:52,-0.01
2026-02-26 15:13:52,0.01
2026-02-26 15:13:52,0
2026-02-26 15:13:52,0
2026-02-26 15:13:52,0
2026-02-26 15:13:52,0
2026-02-26 15:13:52,0
2026-02-26 15:13:52,0
2026-02-26 15:13:52,0
2026-02-26 15:13:53,0
2026-02-26 15:13:53,0.01
2026-02-26 15:13:53,-0.01
2026-02-26 15:13:53,-0.01
2026-02-26 15:13:53,0.02
2026-02-26 15:13:53,0
2026-02-26 15:13:53,-0.02
2026-02-26 15:13:53,0.03
2026-02-26 15:13:53,-0.02
2026-02-26 15:13:53,0.01
2026-02-26 15:13:53,-0.01
2026-02-26 15:13:53,0.01
2026-02-26 15:13:53,0
2026-02-26 15:13:53,0.01
2026-02-26 15:13:53,-0.02
2026-02-26 15:13:53,0.03
2026-02-26 15:13:53,0
2026-02-26 15:13:53,-0.01
2026-02-26 15:13:53,0
2026-02-26 15:13:53,0.01
2026-02-26 15:13:53,-0.01
2026-02-26 15:13:53,0
2026-02-26 15:13:53,0
2026-02-26 15:13:53,0
2026-02-26 15:13:53,0.01
2026-02-26 15:13:53,-0.01
2026-02-26 15:13:53,0
2026-02-26 15:13:53,0.01
2026-02-26 15:13:53,-0.02
2026-02-26 15:13:53,0.02
2026-02-26 15:13:53,-0.01
2026-02-26 15:13:53,0
2026-02-26 15:13:53,0
2026-02-26 15:13:53,0.01
2026-02-26 15:13:53,-0.01
2026-02-26 15:13:53,0.02
2026-02-26 15:13:53,-0.02
2026-02-26 15:13:53,0.01
2026-02-26 15:13:53,0
2026-02-26 15:13:53,0
2026-02-26 15:13:53,0
2026-02-26 15:13:53,0
2026-02-26 15:13:53,-0.01
2026-02-26 15:13:53,0.01
2026-02-26 15:13:53,-0.02
2026-02-26 15:13:53,0.02
2026-02-26 15:13:53,-0.01
2026-02-26 15:13:53,0.01
2026-02-26 15:13:53,-0.02
2026-02-26 15:13:53,-0.01
2026-02-26 15:13:53,0.02
2026-02-26 15:13:53,0.01
2026-02-26 15:13:53,-0.02
2026-02-26 15:13:53,0.01
2026-02-26 15:13:53,0
2026-02-26 15:13:53,0
2026-02-26 15:13:53,0
2026-02-26 15:13:53,0
2026-02-26 15:13:53,-0.01
2026-02-26 15:13:53,0.01
2026-02-26 15:13:53,0
2026-02-26 15:13:53,0
2026-02-26 15:13:53,0
2026-02-26 15:13:53,0
2026-02-26 15:13:53,0
2026-02-26 15:13:53,0.01
2026-02-26 15:13:53,-0.01
2026-02-26 15:13:53,0
2026-02-26 15:13:53,0.02
2026-02-26 15:13:53,-0.01
2026-02-26 15:13:53,-0.01
2026-02-26 15:13:53,0.01
2026-02-26 15:13:53,0.01
2026-02-26 15:13:53,-0.01
2026-02-26 15:13:53,0
2026-02-26 15:13:54,0
2026-02-26 15:13:54,0
2026-02-26 15:13:54,-0.01
2026-02-26 15:13:54,0
2026-02-26 15:13:54,0.01
2026-02-26 15:13:54,-0.02
2026-02-26 15:13:54,0.02
2026-02-26 15:13:54,0
2026-02-26 15:13:54,-0.01
2026-02-26 15:13:54,0
2026-02-26 15:13:54,0.01
2026-02-26 15:13:54,0
2026-02-26 15:13:54,0
2026-02-26 15:13:54,0
2026-02-26 15:13:54,0
2026-02-26 15:13:54,0.01
2026-02-26 15:13:54,-0.01
2026-02-26 15:13:54,0
2026-02-26 15:13:54,0
2026-02-26 15:13:54,0
2026-02-26 15:13:54,-0.01
2026-02-26 15:13:54,0.01
2026-02-26 15:13:54,0
2026-02-26 15:13:54,-0.01
2026-02-26 15:13:54,0.01
2026-02-26 15:13:54,0
2026-02-26 15:13:54,0
2026-02-26 15:13:54,0
2026-02-26 15:13:54,0
2026-02-26 15:13:54,0
2026-02-26 15:13:54,-0.01
2026-02-26 15:13:54,0
2026-02-26 15:13:54,0
2026-02-26 15:13:54,0.01
2026-02-26 15:13:54,-0.01
2026-02-26 15:13:54,0.01
2026-02-26 15:13:54,0
2026-02-26 15:13:54,0
2026-02-26 15:13:54,0
2026-02-26 15:13:54,0
2026-02-26 15:13:54,0
2026-02-26 15:13:54,0
2026-02-26 15:13:54,0
2026-02-26 15:13:54,0
2026-02-26 15:13:54,0
2026-02-26 15:13:54,0
2026-02-26 15:13:54,0
2026-02-26 15:13:54,0
2026-02-26 15:13:54,0
2026-02-26 15:13:54,-0.01
2026-02-26 15:13:54,0.01
2026-02-26 15:13:54,0
2026-02-26 15:13:54,0
2026-02-26 15:13:54,0
2026-02-26 15:13:54,0
2026-02-26 15:13:54,0
2026-02-26 15:13:54,0
2026-02-26 15:13:54,0
2026-02-26 15:13:54,0
2026-02-26 15:13:54,0
2026-02-26 15:13:54,0
2026-02-26 15:13:54,0
2026-02-26 15:13:54,0
2026-02-26 15:13:54,0
2026-02-26 15:13:54,0
2026-02-26 15:13:54,0
2026-02-26 15:13:54,0
2026-02-26 15:13:54,-0.01
2026-02-26 15:13:54,0
2026-02-26 15:13:54,0
2026-02-26 15:13:54,0
2026-02-26 15:13:54,0
2026-02-26 15:13:54,0
2026-02-26 15:13:54,0
2026-02-26 15:13:54,0
2026-02-26 15:13:55,0
2026-02-26 15:13:55,0
2026-02-26 15:13:55,0
2026-02-26 15:13:55,0.01
2026-02-26 15:13:55,-0.01
2026-02-26 15:13:55,0
2026-02-26 15:13:55,0.01
2026-02-26 15:13:55,0
2026-02-26 15:13:55,0
2026-02-26 15:13:55,0
2026-02-26 15:13:55,0
2026-02-26 15:13:55,0
2026-02-26 15:13:55,0
2026-02-26 15:13:55,0
2026-02-26 15:13:55,0
2026-02-26 15:13:55,0
2026-02-26 15:13:55,0
2026-02-26 15:13:55,0
2026-02-26 15:13:55,0
2026-02-26 15:13:55,0
2026-02-26 15:13:55,0
2026-02-26 15:13:55,0
2026-02-26 15:13:55,0
2026-02-26 15:13:55,0
2026-02-26 15:13:55,0
2026-02-26 15:13:55,0
2026-02-26 15:13:55,0
2026-02-26 15:13:55,0
2026-02-26 15:13:55,0
2026-02-26 15:13:55,0
2026-02-26 15:13:55,0
2026-02-26 15:13:55,-0.01
2026-02-26 15:13:55,0.01
2026-02-26 15:13:55,-0.01
2026-02-26 15:13:55,0.01
2026-02-26 15:13:55,-0.01
2026-02-26 15:13:55,0.01
2026-02-26 15:13:55,-0.01
2026-02-26 15:13:55,0
2026-02-26 15:13:55,0
2026-02-26 15:13:55,0
2026-02-26 15:13:55,0
2026-02-26 15:13:55,0
2026-02-26 15:13:55,0
2026-02-26 15:13:55,0
2026-02-26 15:13:55,0
2026-02-26 15:13:55,0
2026-02-26 15:13:55,0
2026-02-26 15:13:55,0.01
2026-02-26 15:13:55,-0.01
2026-02-26 15:13:55,0
2026-02-26 15:13:55,0
2026-02-26 15:13:55,0
2026-02-26 15:13:55,0
2026-02-26 15:13:55,0
2026-02-26 15:13:55,-0.01
2026-02-26 15:13:55,0.01
2026-02-26 15:13:55,-0.01
2026-02-26 15:13:55,0
2026-02-26 15:13:55,0
2026-02-26 15:13:55,0.01
2026-02-26 15:13:55,-0.01
2026-02-26 15:13:55,0.01
2026-02-26 15:13:55,-0.01
2026-02-26 15:13:55,0
2026-02-26 15:13:55,0
2026-02-26 15:13:55,0
2026-02-26 15:13:55,-0.01
2026-02-26 15:13:55,0.01
2026-02-26 15:13:55,0
2026-02-26 15:13:55,0
2026-02-26 15:13:55,0
2026-02-26 15:13:55,0.01
2026-02-26 15:13:55,-0.01
2026-02-26 15:13:55,0.01
2026-02-26 15:13:56,-0.01
2026-02-26 15:13:56,0
2026-02-26 15:13:56,0
2026-02-26 15:13:56,0.01
2026-02-26 15:13:56,-0.01
2026-02-26 15:13:56,0.01
2026-02-26 15:13:56,0
2026-02-26 15:13:56,0
2026-02-26 15:13:56,0
2026-02-26 15:13:56,0.01
2026-02-26 15:13:56,-0.01
2026-02-26 15:13:56,0
2026-02-26 15:13:56,0
2026-02-26 15:13:56,0
2026-02-26 15:13:56,0
2026-02-26 15:13:56,0
2026-02-26 15:13:56,-0.01
2026-02-26 15:13:56,0.01
2026-02-26 15:13:56,-0.01
2026-02-26 15:13:56,0
2026-02-26 15:13:56,0
2026-02-26 15:13:56,0
2026-02-26 15:13:56,-0.01
2026-02-26 15:13:56,0.01
2026-02-26 15:13:56,-0.01
2026-02-26 15:13:56,0.01
2026-02-26 15:13:56,-0.01
2026-02-26 15:13:56,0.01
2026-02-26 15:13:56,0
2026-02-26 15:13:56,0
2026-02-26 15:13:56,-0.01
2026-02-26 15:13:56,0.01
2026-02-26 15:13:56,0
2026-02-26 15:13:56,0
2026-02-26 15:13:56,-0.01
2026-02-26 15:13:56,0.01
2026-02-26 15:13:56,-0.01
2026-02-26 15:13:56,0.01
2026-02-26 15:13:56,-0.01
2026-02-26 15:13:56,0.01
2026-02-26 15:13:56,-0.01
2026-02-26 15:13:56,0.01
2026-02-26 15:13:56,0
2026-02-26 15:13:56,0
2026-02-26 15:13:56,-0.01
2026-02-26 15:13:56,0.01
2026-02-26 15:13:56,-0.01
2026-02-26 15:13:56,0.01
2026-02-26 15:13:56,-0.01
2026-02-26 15:13:56,0.01
2026-02-26 15:13:56,-0.01
2026-02-26 15:13:56,0
2026-02-26 15:13:56,0
2026-02-26 15:13:56,0.01
2026-02-26 15:13:56,-0.01
2026-02-26 15:13:56,0.01
2026-02-26 15:13:56,-0.01
2026-02-26 15:13:56,0.01
2026-02-26 15:13:56,-0.01
2026-02-26 15:13:56,0.01
2026-02-26 15:13:56,-0.01
2026-02-26 15:13:56,0.01
2026-02-26 15:13:56,0
2026-02-26 15:13:56,0
2026-02-26 15:13:56,-0.01
2026-02-26 15:13:56,0.01
2026-02-26 15:13:56,0
2026-02-26 15:13:56,0
2026-02-26 15:13:56,0
2026-02-26 15:13:56,0.01
2026-02-26 15:13:56,-0.01
2026-02-26 15:13:56,0
2026-02-26 15:13:56,0
2026-02-26 15:13:56,0
2026-02-26 15:13:56,0
2026-02-26 15:13:57,0
2026-02-26 15:13:57,0
2026-02-26 15:13:57,0
2026-02-26 15:13:57,0
2026-02-26 15:13:57,0
2026-02-26 15:13:57,0
2026-02-26 15:13:57,0
2026-02-26 15:13:57,0
2026-02-26 15:13:57,0
2026-02-26 15:13:57,0
2026-02-26 15:13:57,0
2026-02-26 15:13:57,0
2026-02-26 15:13:57,0
2026-02-26 15:13:57,0
2026-02-26 15:13:57,0
2026-02-26 15:13:57,0
2026-02-26 15:13:57,0
2026-02-26 15:13:57,0
2026-02-26 15:13:57,0
2026-02-26 15:13:57,0
2026-02-26 15:13:57,0
2026-02-26 15:13:57,0
2026-02-26 15:13:57,0
2026-02-26 15:13:57,0
2026-02-26 15:13:57,0
2026-02-26 15:13:57,0
2026-02-26 15:13:57,0
2026-02-26 15:13:57,0.01
2026-02-26 15:13:57,0
2026-02-26 15:13:57,-0.01
2026-02-26 15:13:57,0
2026-02-26 15:13:57,0
2026-02-26 15:13:57,0
2026-02-26 15:13:57,0
2026-02-26 15:13:57,0
2026-02-26 15:13:57,0
2026-02-26 15:13:57,0
2026-02-26 15:13:57,0
2026-02-26 15:13:57,0
2026-02-26 15:13:57,0
2026-02-26 15:13:57,0
2026-02-26 15:13:57,0
2026-02-26 15:13:57,0
2026-02-26 15:13:57,0
2026-02-26 15:13:57,0
2026-02-26 15:13:57,0
2026-02-26 15:13:57,0
2026-02-26 15:13:57,0
2026-02-26 15:13:57,0
2026-02-26 15:13:57,0
2026-02-26 15:13:57,0
2026-02-26 15:13:57,0
2026-02-26 15:13:57,0
2026-02-26 15:13:57,0
2026-02-26 15:13:57,0
2026-02-26 15:13:57,0
2026-02-26 15:13:57,0
2026-02-26 15:13:57,0
2026-02-26 15:13:57,0
2026-02-26 15:13:57,0
2026-02-26 15:13:57,0.01
2026-02-26 15:13:57,0
2026-02-26 15:13:57,-0.01
2026-02-26 15:13:57,0.01
2026-02-26 15:13:57,0
2026-02-26 15:13:57,0
2026-02-26 15:13:57,0
2026-02-26 15:13:57,0
2026-02-26 15:13:57,0.01
2026-02-26 15:13:57,0
2026-02-26 15:13:57,0
2026-02-26 15:13:57,0
2026-02-26 15:13:57,0
2026-02-26 15:13:57,-0.01
2026-02-26 15:13:57,0
2026-02-26 15:13:58,0
2026-02-26 15:13:58,0
2026-02-26 15:13:58,0
2026-02-26 15:13:58,0
2026-02-26 15:13:58,0
2026-02-26 15:13:58,0
2026-02-26 15:13:58,0
2026-02-26 15:13:58,0
2026-02-26 15:13:58,0
2026-02-26 15:13:58,0
2026-02-26 15:13:58,0
2026-02-26 15:13:58,0
2026-02-26 15:13:58,0
2026-02-26 15:13:58,0
2026-02-26 15:13:58,0
2026-02-26 15:13:58,0
2026-02-26 15:13:58,0
2026-02-26 15:13:58,0
2026-02-26 15:13:58,0
2026-02-26 15:13:58,0
2026-02-26 15:13:58,0
2026-02-26 15:13:58,0
2026-02-26 15:13:58,0
2026-02-26 15:13:58,0
2026-02-26 15:13:58,0
2026-02-26 15:13:58,0
2026-02-26 15:13:58,0
2026-02-26 15:13:58,0
2026-02-26 15:13:58,0
2026-02-26 15:13:58,0
2026-02-26 15:13:58,0
2026-02-26 15:13:58,0
2026-02-26 15:13:58,0
2026-02-26 15:13:58,0
2026-02-26 15:13:58,0
2026-02-26 15:13:58,0
2026-02-26 15:13:58,0
2026-02-26 15:13:58,0
2026-02-26 15:13:58,-0.01
2026-02-26 15:13:58,0.01
2026-02-26 15:13:58,0.01
2026-02-26 15:13:58,0
2026-02-26 15:13:58,-0.01
2026-02-26 15:13:58,0.01
2026-02-26 15:13:58,0
2026-02-26 15:13:58,0
2026-02-26 15:13:58,-0.01
2026-02-26 15:13:58,0.01
2026-02-26 15:13:58,-0.01
2026-02-26 15:13:58,0.01
2026-02-26 15:13:58,-0.01
2026-02-26 15:13:58,0.01
2026-02-26 15:13:58,-0.01
2026-02-26 15:13:58,0.01
2026-02-26 15:13:58,-0.01
2026-02-26 15:13:58,0.01
2026-02-26 15:13:58,-0.01
2026-02-26 15:13:58,0.01
2026-02-26 15:13:58,-0.01
2026-02-26 15:13:58,0.01
2026-02-26 15:13:58,0
2026-02-26 15:13:58,0.01
2026-02-26 15:13:58,-0.01
2026-02-26 15:13:58,0.01
2026-02-26 15:13:58,-0.01
2026-02-26 15:13:58,0.01
2026-02-26 15:13:58,-0.01
2026-02-26 15:13:58,0.01
2026-02-26 15:13:58,-0.01
2026-02-26 15:13:58,0.01
2026-02-26 15:13:58,-0.01
2026-02-26 15:13:58,0.01
2026-02-26 15:13:58,-0.01
2026-02-26 15:13:58,0.01
2026-02-26 15:13:58,-0.01
2026-02-26 15:13:59,0.02
2026-02-26 15:13:59,-0.02
2026-02-26 15:13:59,0.01
2026-02-26 15:13:59,-0.01
2026-02-26 15:13:59,0.01
2026-02-26 15:13:59,-0.01
2026-02-26 15:13:59,0.01
2026-02-26 15:13:59,-0.01
2026-02-26 15:13:59,0.01
2026-02-26 15:13:59,-0.02
2026-02-26 15:13:59,0.02
2026-02-26 15:13:59,-0.01
2026-02-26 15:13:59,0.01
2026-02-26 15:13:59,-0.02
2026-02-26 15:13:59,0.02
2026-02-26 15:13:59,-0.01
2026-02-26 15:13:59,0.01
2026-02-26 15:13:59,-0.01
2026-02-26 15:13:59,0.02
2026-02-26 15:13:59,-0.02
2026-02-26 15:13:59,0.01
2026-02-26 15:13:59,-0.01
2026-02-26 15:13:59,0.02
2026-02-26 15:13:59,-0.02
2026-02-26 15:13:59,0.02
2026-02-26 15:13:59,-0.02
2026-02-26 15:13:59,0.01